# Subject: DANNY
# Trial: no_active1
# Notes: 
# Muscles: Ch1
# fs=2000 Hz, nch=1, vref=3.3 V
t_s,ch1_code
116.875000,1893
116.875500,1889
116.876000,1884
116.876500,1877
116.877000,1872
116.877500,1868
116.878000,1864
116.878500,1860
116.879000,1857
116.879500,1854
116.880000,1854
116.880500,1850
116.881000,1850
116.881500,1846
116.882000,1843
116.882500,1842
116.883000,1840
116.883500,1839
116.884000,1836
116.884500,1834
116.885000,1833
116.885500,1832
116.886000,1832
116.886500,1829
116.887000,1828
116.887500,1829
116.888000,1827
116.888500,1824
116.889000,1823
116.889500,1824
116.890000,1823
116.890500,1823
116.891000,1824
116.891500,1085
116.892000,1847
116.892500,1147
116.893000,1921
116.893500,1912
116.894000,1905
116.894500,1901
116.895000,1893
116.895500,1889
116.896000,1885
116.896500,1878
116.897000,1867
116.897500,1869
116.898000,1866
116.898500,1863
116.899000,1858
116.899500,1855
116.900000,1853
116.900500,1854
116.901000,1853
116.901500,1846
116.902000,1843
116.902500,1842
116.903000,1840
116.903500,1838
116.904000,1837
116.904500,1835
116.905000,1835
116.905500,1833
116.906000,1832
116.906500,1830
116.907000,1828
116.907500,1827
116.908000,1826
116.908500,1826
116.909000,1824
116.909500,1822
116.910000,1822
116.910500,1822
116.911000,1823
116.911500,1118
116.912000,1787
116.912500,1401
116.913000,1923
116.913500,1916
116.914000,1907
116.914500,1902
116.915000,1899
116.915500,1891
116.916000,1887
116.916500,1881
116.917000,1877
116.917500,1871
116.918000,1866
116.918500,1862
116.919000,1859
116.919500,1856
116.920000,1854
116.920500,1853
116.921000,1854
116.921500,1846
116.922000,1844
116.922500,1842
116.923000,1842
116.923500,1839
116.924000,1836
116.924500,1834
116.925000,1837
116.925500,1833
116.926000,1834
116.926500,1829
116.927000,1831
116.927500,1828
116.928000,1826
116.928500,1824
116.929000,1822
116.929500,1823
116.930000,1827
116.930500,1822
116.931000,1824
116.931500,1506
116.932000,1813
116.932500,615
116.933000,1945
116.933500,1938
116.934000,1925
116.934500,1918
116.935000,1913
116.935500,1906
116.936000,1899
116.936500,1894
116.937000,1887
116.937500,1881
116.938000,1876
116.938500,1874
116.939000,1868
116.939500,1864
116.940000,1865
116.940500,1859
116.941000,1857
116.941500,1852
116.942000,1850
116.942500,1846
116.943000,1845
116.943500,1842
116.944000,1840
116.944500,1839
116.945000,1842
116.945500,1838
116.946000,1837
116.946500,1834
116.947000,1833
116.947500,1830
116.948000,1829
116.948500,1826
116.949000,1828
116.949500,1826
116.950000,1825
116.950500,1826
116.951000,1826
116.951500,990
116.952000,1849
116.952500,1068
116.953000,1929
116.953500,1921
116.954000,1912
116.954500,1907
116.955000,1905
116.955500,1895
116.956000,1892
116.956500,1882
116.957000,1877
116.957500,1871
116.958000,1869
116.958500,1865
116.959000,1860
116.959500,1859
116.960000,1854
116.960500,1854
116.961000,1852
116.961500,1848
116.962000,1847
116.962500,1843
116.963000,1840
116.963500,1840
116.964000,1838
116.964500,1836
116.965000,1839
116.965500,1834
116.966000,1835
116.966500,1830
116.967000,1829
116.967500,1828
116.968000,1828
116.968500,1826
116.969000,1828
116.969500,1824
116.970000,1827
116.970500,1826
116.971000,1827
116.971500,979
116.972000,1635
116.972500,306
116.973000,1943
116.973500,1934
116.974000,1926
116.974500,1920
116.975000,1913
116.975500,1905
116.976000,1901
116.976500,1893
116.977000,1887
116.977500,1882
116.978000,1877
116.978500,1872
116.979000,1869
116.979500,1863
116.980000,1865
116.980500,1860
116.981000,1857
116.981500,1854
116.982000,1850
116.982500,1850
116.983000,1845
116.983500,1842
116.984000,1842
116.984500,1841
116.985000,1842
116.985500,1837
116.986000,1839
116.986500,1834
116.987000,1831
116.987500,1830
116.988000,1830
116.988500,1828
116.989000,1830
116.989500,1826
116.990000,1826
116.990500,1825
116.991000,1825
116.991500,1392
116.992000,1756
116.992500,1013
116.993000,1962
116.993500,1952
116.994000,1942
116.994500,1934
116.995000,1926
116.995500,1918
116.996000,1915
116.996500,1898
116.997000,1898
116.997500,1892
116.998000,1886
116.998500,1879
116.999000,1876
116.999500,1871
117.000000,1867
117.000500,1866
117.001000,1864
117.001500,1859
117.002000,1856
117.002500,1855
117.003000,1850
117.003500,1847
117.004000,1846
117.004500,1844
117.005000,1843
117.005500,1843
117.006000,1840
117.006500,1836
117.007000,1833
117.007500,1833
117.008000,1831
117.008500,1830
117.009000,1829
117.009500,1829
117.010000,1831
117.010500,1828
117.011000,1828
117.011500,1172
117.012000,1788
117.012500,1106
117.013000,1921
117.013500,1917
117.014000,1911
117.014500,1904
117.015000,1900
117.015500,1892
117.016000,1887
117.016500,1880
117.017000,1877
117.017500,1876
117.018000,1867
117.018500,1864
117.019000,1862
117.019500,1856
117.020000,1854
117.020500,1852
117.021000,1850
117.021500,1848
117.022000,1846
117.022500,1841
117.023000,1842
117.023500,1839
117.024000,1836
117.024500,1836
117.025000,1837
117.025500,1832
117.026000,1834
117.026500,1830
117.027000,1830
117.027500,1828
117.028000,1830
117.028500,1825
117.029000,1824
117.029500,1822
117.030000,1824
117.030500,1823
117.031000,1824
117.031500,1453
117.032000,1769
117.032500,306
117.033000,1899
117.033500,1942
117.034000,1932
117.034500,1926
117.035000,1917
117.035500,1911
117.036000,1906
117.036500,1897
117.037000,1892
117.037500,1886
117.038000,1881
117.038500,1868
117.039000,1872
117.039500,1866
117.040000,1867
117.040500,1862
117.041000,1860
117.041500,1854
117.042000,1852
117.042500,1850
117.043000,1847
117.043500,1845
117.044000,1843
117.044500,1840
117.045000,1842
117.045500,1838
117.046000,1839
117.046500,1834
117.047000,1833
117.047500,1831
117.048000,1831
117.048500,1829
117.049000,1828
117.049500,1826
117.050000,1823
117.050500,1825
117.051000,1826
117.051500,1139
117.052000,1518
117.052500,902
117.053000,1770
117.053500,1929
117.054000,1920
117.054500,1916
117.055000,1906
117.055500,1902
117.056000,1897
117.056500,1889
117.057000,1883
117.057500,1879
117.058000,1875
117.058500,1868
117.059000,1866
117.059500,1862
117.060000,1857
117.060500,1858
117.061000,1857
117.061500,1852
117.062000,1848
117.062500,1847
117.063000,1845
117.063500,1843
117.064000,1840
117.064500,1838
117.065000,1837
117.065500,1836
117.066000,1836
117.066500,1833
117.067000,1831
117.067500,1830
117.068000,1829
117.068500,1826
117.069000,1825
117.069500,1826
117.070000,1824
117.070500,1831
117.071000,1826
117.071500,1305
117.072000,1470
117.072500,1283
117.073000,1893
117.073500,1934
117.074000,1924
117.074500,1918
117.075000,1911
117.075500,1906
117.076000,1899
117.076500,1892
117.077000,1886
117.077500,1882
117.078000,1877
117.078500,1872
117.079000,1868
117.079500,1866
117.080000,1865
117.080500,1859
117.081000,1858
117.081500,1853
117.082000,1850
117.082500,1848
117.083000,1846
117.083500,1842
117.084000,1842
117.084500,1840
117.085000,1840
117.085500,1838
117.086000,1841
117.086500,1834
117.087000,1831
117.087500,1830
117.088000,1830
117.088500,1827
117.089000,1826
117.089500,1826
117.090000,1828
117.090500,1825
117.091000,1826
117.091500,1242
117.092000,1520
117.092500,1033
117.093000,1721
117.093500,1956
117.094000,1946
117.094500,1938
117.095000,1928
117.095500,1922
117.096000,1915
117.096500,1908
117.097000,1900
117.097500,1897
117.098000,1887
117.098500,1884
117.099000,1879
117.099500,1874
117.100000,1874
117.100500,1865
117.101000,1866
117.101500,1861
117.102000,1857
117.102500,1853
117.103000,1852
117.103500,1850
117.104000,1847
117.104500,1842
117.105000,1842
117.105500,1842
117.106000,1839
117.106500,1836
117.107000,1835
117.107500,1833
117.108000,1834
117.108500,1830
117.109000,1831
117.109500,1828
117.110000,1826
117.110500,1828
117.111000,1829
117.111500,1332
117.112000,1369
117.112500,1476
117.113000,1649
117.113500,1942
117.114000,1936
117.114500,1926
117.115000,1924
117.115500,1912
117.116000,1906
117.116500,1899
117.117000,1893
117.117500,1886
117.118000,1882
117.118500,1877
117.119000,1872
117.119500,1868
117.120000,1866
117.120500,1863
117.121000,1862
117.121500,1856
117.122000,1854
117.122500,1850
117.123000,1847
117.123500,1846
117.124000,1844
117.124500,1841
117.125000,1842
117.125500,1838
117.126000,1838
117.126500,1835
117.127000,1833
117.127500,1832
117.128000,1830
117.128500,1829
117.129000,1826
117.129500,1826
117.130000,1829
117.130500,1826
117.131000,1828
117.131500,1235
117.132000,1253
117.132500,1147
117.133000,1608
117.133500,1930
117.134000,1924
117.134500,1915
117.135000,1912
117.135500,1904
117.136000,1900
117.136500,1891
117.137000,1883
117.137500,1880
117.138000,1874
117.138500,1870
117.139000,1866
117.139500,1862
117.140000,1862
117.140500,1858
117.141000,1857
117.141500,1852
117.142000,1849
117.142500,1848
117.143000,1846
117.143500,1842
117.144000,1841
117.144500,1838
117.145000,1840
117.145500,1836
117.146000,1837
117.146500,1832
117.147000,1831
117.147500,1829
117.148000,1829
117.148500,1827
117.149000,1826
117.149500,1825
117.150000,1827
117.150500,1825
117.151000,1826
117.151500,1371
117.152000,1196
117.152500,1224
117.153000,1591
117.153500,1943
117.154000,1937
117.154500,1927
117.155000,1921
117.155500,1913
117.156000,1907
117.156500,1897
117.157000,1894
117.157500,1887
117.158000,1882
117.158500,1877
117.159000,1870
117.159500,1870
117.160000,1868
117.160500,1862
117.161000,1862
117.161500,1855
117.162000,1854
117.162500,1852
117.163000,1849
117.163500,1846
117.164000,1843
117.164500,1842
117.165000,1842
117.165500,1840
117.166000,1839
117.166500,1836
117.167000,1833
117.167500,1831
117.168000,1831
117.168500,1830
117.169000,1828
117.169500,1827
117.170000,1829
117.170500,1826
117.171000,1829
117.171500,1334
117.172000,940
117.172500,1562
117.173000,1799
117.173500,1943
117.174000,1937
117.174500,1926
117.175000,1924
117.175500,1913
117.176000,1907
117.176500,1898
117.177000,1892
117.177500,1887
117.178000,1881
117.178500,1878
117.179000,1874
117.179500,1869
117.180000,1867
117.180500,1863
117.181000,1860
117.181500,1857
117.182000,1854
117.182500,1851
117.183000,1849
117.183500,1847
117.184000,1844
117.184500,1842
117.185000,1839
117.185500,1839
117.186000,1838
117.186500,1835
117.187000,1834
117.187500,1831
117.188000,1831
117.188500,1828
117.189000,1827
117.189500,1826
117.190000,1831
117.190500,1826
117.191000,1826
117.191500,1376
117.192000,1064
117.192500,1619
117.193000,1305
117.193500,1965
117.194000,1957
117.194500,1945
117.195000,1941
117.195500,1931
117.196000,1922
117.196500,1912
117.197000,1907
117.197500,1901
117.198000,1892
117.198500,1890
117.199000,1884
117.199500,1878
117.200000,1884
117.200500,1873
117.201000,1869
117.201500,1864
117.202000,1860
117.202500,1858
117.203000,1855
117.203500,1852
117.204000,1848
117.204500,1846
117.205000,1849
117.205500,1843
117.206000,1843
117.206500,1838
117.207000,1837
117.207500,1836
117.208000,1834
117.208500,1832
117.209000,1830
117.209500,1830
117.210000,1828
117.210500,1829
117.211000,1828
117.211500,1648
117.212000,1547
117.212500,1666
117.213000,853
117.213500,1964
117.214000,1956
117.214500,1946
117.215000,1938
117.215500,1930
117.216000,1922
117.216500,1914
117.217000,1906
117.217500,1901
117.218000,1895
117.218500,1889
117.219000,1882
117.219500,1878
117.220000,1878
117.220500,1870
117.221000,1870
117.221500,1863
117.222000,1859
117.222500,1858
117.223000,1854
117.223500,1851
117.224000,1849
117.224500,1846
117.225000,1846
117.225500,1848
117.226000,1845
117.226500,1839
117.227000,1837
117.227500,1834
117.228000,1834
117.228500,1831
117.229000,1831
117.229500,1829
117.230000,1832
117.230500,1829
117.231000,1828
117.231500,1664
117.232000,1172
117.232500,1485
117.233000,1191
117.233500,1948
117.234000,1945
117.234500,1935
117.235000,1924
117.235500,1921
117.236000,1914
117.236500,1905
117.237000,1899
117.237500,1892
117.238000,1886
117.238500,1883
117.239000,1877
117.239500,1872
117.240000,1872
117.240500,1866
117.241000,1864
117.241500,1861
117.242000,1857
117.242500,1853
117.243000,1851
117.243500,1848
117.244000,1845
117.244500,1843
117.245000,1842
117.245500,1841
117.246000,1839
117.246500,1838
117.247000,1835
117.247500,1834
117.248000,1831
117.248500,1831
117.249000,1830
117.249500,1828
117.250000,1833
117.250500,1827
117.251000,1829
117.251500,1702
117.252000,1517
117.252500,1229
117.253000,701
117.253500,1970
117.254000,1960
117.254500,1949
117.255000,1941
117.255500,1933
117.256000,1925
117.256500,1915
117.257000,1908
117.257500,1901
117.258000,1896
117.258500,1892
117.259000,1885
117.259500,1879
117.260000,1876
117.260500,1874
117.261000,1874
117.261500,1865
117.262000,1862
117.262500,1860
117.263000,1856
117.263500,1852
117.264000,1849
117.264500,1846
117.265000,1849
117.265500,1844
117.266000,1844
117.266500,1839
117.267000,1838
117.267500,1835
117.268000,1834
117.268500,1834
117.269000,1831
117.269500,1829
117.270000,1834
117.270500,1831
117.271000,1831
117.271500,1587
117.272000,1570
117.272500,1376
117.273000,829
117.273500,1930
117.274000,1922
117.274500,1914
117.275000,1909
117.275500,1901
117.276000,1898
117.276500,1888
117.277000,1885
117.277500,1879
117.278000,1873
117.278500,1870
117.279000,1867
117.279500,1863
117.280000,1858
117.280500,1858
117.281000,1856
117.281500,1851
117.282000,1848
117.282500,1846
117.283000,1845
117.283500,1843
117.284000,1841
117.284500,1838
117.285000,1837
117.285500,1836
117.286000,1837
117.286500,1831
117.287000,1832
117.287500,1833
117.288000,1829
117.288500,1828
117.289000,1826
117.289500,1825
117.290000,1823
117.290500,1824
117.291000,1826
117.291500,1749
117.292000,846
117.292500,1504
117.293000,1644
117.293500,1934
117.294000,1928
117.294500,1920
117.295000,1912
117.295500,1907
117.296000,1900
117.296500,1894
117.297000,1887
117.297500,1883
117.298000,1878
117.298500,1874
117.299000,1869
117.299500,1864
117.300000,1864
117.300500,1859
117.301000,1858
117.301500,1852
117.302000,1850
117.302500,1848
117.303000,1846
117.303500,1845
117.304000,1842
117.304500,1840
117.305000,1837
117.305500,1836
117.306000,1835
117.306500,1831
117.307000,1832
117.307500,1830
117.308000,1828
117.308500,1827
117.309000,1827
117.309500,1825
117.310000,1824
117.310500,1825
117.311000,1822
117.311500,1747
117.312000,1408
117.312500,1485
117.313000,249
117.313500,1951
117.314000,1946
117.314500,1940
117.315000,1929
117.315500,1922
117.316000,1917
117.316500,1908
117.317000,1900
117.317500,1894
117.318000,1888
117.318500,1884
117.319000,1883
117.319500,1874
117.320000,1869
117.320500,1867
117.321000,1865
117.321500,1861
117.322000,1859
117.322500,1854
117.323000,1852
117.323500,1848
117.324000,1846
117.324500,1843
117.325000,1846
117.325500,1842
117.326000,1841
117.326500,1838
117.327000,1836
117.327500,1833
117.328000,1831
117.328500,1831
117.329000,1829
117.329500,1829
117.330000,1832
117.330500,1827
117.331000,1827
117.331500,1772
117.332000,1179
117.332500,1520
117.333000,1145
117.333500,1933
117.334000,1935
117.334500,1926
117.335000,1919
117.335500,1912
117.336000,1906
117.336500,1898
117.337000,1892
117.337500,1887
117.338000,1881
117.338500,1877
117.339000,1873
117.339500,1867
117.340000,1865
117.340500,1863
117.341000,1860
117.341500,1856
117.342000,1854
117.342500,1850
117.343000,1846
117.343500,1845
117.344000,1843
117.344500,1838
117.345000,1840
117.345500,1839
117.346000,1838
117.346500,1835
117.347000,1835
117.347500,1831
117.348000,1829
117.348500,1827
117.349000,1827
117.349500,1826
117.350000,1826
117.350500,1826
117.351000,1830
117.351500,1812
117.352000,993
117.352500,1731
117.353000,0
117.353500,1945
117.354000,1954
117.354500,1944
117.355000,1938
117.355500,1929
117.356000,1922
117.356500,1912
117.357000,1906
117.357500,1900
117.358000,1893
117.358500,1886
117.359000,1881
117.359500,1880
117.360000,1878
117.360500,1872
117.361000,1868
117.361500,1858
117.362000,1858
117.362500,1855
117.363000,1852
117.363500,1850
117.364000,1848
117.364500,1844
117.365000,1847
117.365500,1844
117.366000,1844
117.366500,1838
117.367000,1837
117.367500,1835
117.368000,1834
117.368500,1832
117.369000,1831
117.369500,1829
117.370000,1827
117.370500,1828
117.371000,1828
117.371500,1825
117.372000,1558
117.372500,1661
117.373000,406
117.373500,1930
117.374000,1946
117.374500,1936
117.375000,1928
117.375500,1921
117.376000,1912
117.376500,1905
117.377000,1899
117.377500,1893
117.378000,1889
117.378500,1882
117.379000,1878
117.379500,1873
117.380000,1868
117.380500,1868
117.381000,1864
117.381500,1861
117.382000,1857
117.382500,1854
117.383000,1852
117.383500,1849
117.384000,1847
117.384500,1844
117.385000,1846
117.385500,1841
117.386000,1839
117.386500,1836
117.387000,1834
117.387500,1842
117.388000,1831
117.388500,1831
117.389000,1829
117.389500,1827
117.390000,1831
117.390500,1830
117.391000,1831
117.391500,1822
117.392000,1172
117.392500,1824
117.393000,0
117.393500,1948
117.394000,1951
117.394500,1942
117.395000,1938
117.395500,1927
117.396000,1921
117.396500,1912
117.397000,1901
117.397500,1898
117.398000,1889
117.398500,1886
117.399000,1882
117.399500,1876
117.400000,1874
117.400500,1872
117.401000,1867
117.401500,1861
117.402000,1860
117.402500,1857
117.403000,1854
117.403500,1851
117.404000,1849
117.404500,1846
117.405000,1847
117.405500,1843
117.406000,1842
117.406500,1838
117.407000,1836
117.407500,1836
117.408000,1833
117.408500,1832
117.409000,1831
117.409500,1828
117.410000,1830
117.410500,1828
117.411000,1829
117.411500,1813
117.412000,1532
117.412500,1813
117.413000,0
117.413500,1966
117.414000,1963
117.414500,1953
117.415000,1947
117.415500,1938
117.416000,1930
117.416500,1920
117.417000,1914
117.417500,1908
117.418000,1906
117.418500,1895
117.419000,1886
117.419500,1883
117.420000,1878
117.420500,1874
117.421000,1873
117.421500,1866
117.422000,1863
117.422500,1861
117.423000,1856
117.423500,1854
117.424000,1852
117.424500,1849
117.425000,1851
117.425500,1846
117.426000,1844
117.426500,1842
117.427000,1838
117.427500,1837
117.428000,1834
117.428500,1834
117.429000,1834
117.429500,1831
117.430000,1830
117.430500,1829
117.431000,1830
117.431500,1826
117.432000,1447
117.432500,1817
117.433000,0
117.433500,1949
117.434000,1939
117.434500,1932
117.435000,1926
117.435500,1918
117.436000,1911
117.436500,1903
117.437000,1898
117.437500,1889
117.438000,1886
117.438500,1880
117.439000,1874
117.439500,1871
117.440000,1870
117.440500,1865
117.441000,1863
117.441500,1860
117.442000,1855
117.442500,1853
117.443000,1850
117.443500,1847
117.444000,1846
117.444500,1843
117.445000,1846
117.445500,1840
117.446000,1842
117.446500,1836
117.447000,1834
117.447500,1830
117.448000,1830
117.448500,1830
117.449000,1829
117.449500,1829
117.450000,1829
117.450500,1825
117.451000,1828
117.451500,1822
117.452000,1002
117.452500,1755
117.453000,666
117.453500,1941
117.454000,1935
117.454500,1926
117.455000,1922
117.455500,1912
117.456000,1907
117.456500,1899
117.457000,1892
117.457500,1886
117.458000,1882
117.458500,1877
117.459000,1873
117.459500,1867
117.460000,1865
117.460500,1862
117.461000,1861
117.461500,1855
117.462000,1854
117.462500,1850
117.463000,1848
117.463500,1846
117.464000,1844
117.464500,1842
117.465000,1844
117.465500,1838
117.466000,1839
117.466500,1836
117.467000,1834
117.467500,1831
117.468000,1831
117.468500,1830
117.469000,1828
117.469500,1828
117.470000,1826
117.470500,1826
117.471000,1826
117.471500,1820
117.472000,965
117.472500,1770
117.473000,210
117.473500,1951
117.474000,1942
117.474500,1934
117.475000,1931
117.475500,1918
117.476000,1912
117.476500,1900
117.477000,1898
117.477500,1890
117.478000,1888
117.478500,1881
117.479000,1876
117.479500,1872
117.480000,1872
117.480500,1865
117.481000,1863
117.481500,1858
117.482000,1858
117.482500,1854
117.483000,1850
117.483500,1847
117.484000,1847
117.484500,1844
117.485000,1842
117.485500,1843
117.486000,1842
117.486500,1837
117.487000,1835
117.487500,1833
117.488000,1832
117.488500,1830
117.489000,1828
117.489500,1828
117.490000,1828
117.490500,1826
117.491000,1831
117.491500,1823
117.492000,1275
117.492500,1717
117.493000,132
117.493500,1942
117.494000,1934
117.494500,1927
117.495000,1922
117.495500,1912
117.496000,1906
117.496500,1899
117.497000,1893
117.497500,1886
117.498000,1882
117.498500,1876
117.499000,1874
117.499500,1867
117.500000,1866
117.500500,1862
117.501000,1860
117.501500,1857
117.502000,1852
117.502500,1851
117.503000,1849
117.503500,1846
117.504000,1844
117.504500,1843
117.505000,1841
117.505500,1838
117.506000,1837
117.506500,1835
117.507000,1832
117.507500,1832
117.508000,1829
117.508500,1828
117.509000,1827
117.509500,1826
117.510000,1829
117.510500,1828
117.511000,1829
117.511500,1823
117.512000,1383
117.512500,1758
117.513000,0
117.513500,1972
117.514000,1963
117.514500,1951
117.515000,1942
117.515500,1931
117.516000,1930
117.516500,1918
117.517000,1909
117.517500,1904
117.518000,1898
117.518500,1891
117.519000,1887
117.519500,1882
117.520000,1881
117.520500,1877
117.521000,1872
117.521500,1866
117.522000,1861
117.522500,1858
117.523000,1856
117.523500,1854
117.524000,1852
117.524500,1847
117.525000,1855
117.525500,1845
117.526000,1845
117.526500,1840
117.527000,1837
117.527500,1837
117.528000,1835
117.528500,1834
117.529000,1832
117.529500,1831
117.530000,1830
117.530500,1830
117.531000,1832
117.531500,1824
117.532000,1624
117.532500,1737
117.533000,0
117.533500,1954
117.534000,1948
117.534500,1937
117.535000,1932
117.535500,1921
117.536000,1915
117.536500,1906
117.537000,1900
117.537500,1893
117.538000,1886
117.538500,1884
117.539000,1879
117.539500,1874
117.540000,1873
117.540500,1866
117.541000,1864
117.541500,1861
117.542000,1857
117.542500,1854
117.543000,1853
117.543500,1849
117.544000,1846
117.544500,1845
117.545000,1846
117.545500,1845
117.546000,1843
117.546500,1836
117.547000,1835
117.547500,1834
117.548000,1832
117.548500,1831
117.549000,1829
117.549500,1828
117.550000,1831
117.550500,1827
117.551000,1828
117.551500,1823
117.552000,1681
117.552500,1775
117.553000,798
117.553500,1935
117.554000,1928
117.554500,1920
117.555000,1913
117.555500,1907
117.556000,1902
117.556500,1894
117.557000,1887
117.557500,1883
117.558000,1879
117.558500,1873
117.559000,1869
117.559500,1864
117.560000,1868
117.560500,1860
117.561000,1857
117.561500,1854
117.562000,1850
117.562500,1850
117.563000,1846
117.563500,1844
117.564000,1841
117.564500,1839
117.565000,1844
117.565500,1840
117.566000,1838
117.566500,1833
117.567000,1832
117.567500,1831
117.568000,1829
117.568500,1828
117.569000,1827
117.569500,1826
117.570000,1831
117.570500,1825
117.571000,1828
117.571500,1821
117.572000,1628
117.572500,1775
117.573000,0
117.573500,1962
117.574000,1953
117.574500,1943
117.575000,1933
117.575500,1925
117.576000,1920
117.576500,1911
117.577000,1904
117.577500,1898
117.578000,1892
117.578500,1886
117.579000,1880
117.579500,1876
117.580000,1873
117.580500,1871
117.581000,1867
117.581500,1862
117.582000,1860
117.582500,1856
117.583000,1851
117.583500,1850
117.584000,1847
117.584500,1846
117.585000,1846
117.585500,1842
117.586000,1843
117.586500,1838
117.587000,1838
117.587500,1834
117.588000,1833
117.588500,1830
117.589000,1831
117.589500,1828
117.590000,1829
117.590500,1828
117.591000,1829
117.591500,1817
117.592000,1648
117.592500,1787
117.593000,467
117.593500,1939
117.594000,1938
117.594500,1930
117.595000,1924
117.595500,1917
117.596000,1910
117.596500,1902
117.597000,1897
117.597500,1891
117.598000,1885
117.598500,1879
117.599000,1874
117.599500,1871
117.600000,1871
117.600500,1864
117.601000,1863
117.601500,1859
117.602000,1854
117.602500,1853
117.603000,1850
117.603500,1846
117.604000,1844
117.604500,1842
117.605000,1842
117.605500,1841
117.606000,1841
117.606500,1836
117.607000,1832
117.607500,1833
117.608000,1831
117.608500,1831
117.609000,1829
117.609500,1826
117.610000,1827
117.610500,1828
117.611000,1830
117.611500,1824
117.612000,1266
117.612500,1866
117.613000,528
117.613500,1926
117.614000,1917
117.614500,1911
117.615000,1902
117.615500,1897
117.616000,1893
117.616500,1886
117.617000,1882
117.617500,1877
117.618000,1872
117.618500,1866
117.619000,1863
117.619500,1859
117.620000,1858
117.620500,1855
117.621000,1854
117.621500,1849
117.622000,1848
117.622500,1845
117.623000,1842
117.623500,1840
117.624000,1840
117.624500,1836
117.625000,1837
117.625500,1835
117.626000,1835
117.626500,1832
117.627000,1831
117.627500,1830
117.628000,1828
117.628500,1826
117.629000,1824
117.629500,1824
117.630000,1824
117.630500,1823
117.631000,1824
117.631500,1822
117.632000,1107
117.632500,1824
117.633000,37
117.633500,1948
117.634000,1941
117.634500,1934
117.635000,1928
117.635500,1917
117.636000,1911
117.636500,1902
117.637000,1898
117.637500,1892
117.638000,1886
117.638500,1880
117.639000,1876
117.639500,1873
117.640000,1868
117.640500,1864
117.641000,1863
117.641500,1857
117.642000,1856
117.642500,1852
117.643000,1850
117.643500,1849
117.644000,1845
117.644500,1843
117.645000,1840
117.645500,1840
117.646000,1839
117.646500,1836
117.647000,1834
117.647500,1833
117.648000,1832
117.648500,1830
117.649000,1830
117.649500,1821
117.650000,1827
117.650500,1827
117.651000,1826
117.651500,1822
117.652000,1520
117.652500,1714
117.653000,1294
117.653500,1906
117.654000,1928
117.654500,1918
117.655000,1914
117.655500,1907
117.656000,1902
117.656500,1894
117.657000,1888
117.657500,1882
117.658000,1878
117.658500,1872
117.659000,1869
117.659500,1865
117.660000,1862
117.660500,1863
117.661000,1860
117.661500,1853
117.662000,1851
117.662500,1848
117.663000,1846
117.663500,1843
117.664000,1843
117.664500,1840
117.665000,1843
117.665500,1838
117.666000,1838
117.666500,1833
117.667000,1832
117.667500,1831
117.668000,1829
117.668500,1828
117.669000,1826
117.669500,1827
117.670000,1824
117.670500,1826
117.671000,1825
117.671500,1824
117.672000,1169
117.672500,1704
117.673000,606
117.673500,1918
117.674000,1942
117.674500,1934
117.675000,1927
117.675500,1922
117.676000,1913
117.676500,1905
117.677000,1900
117.677500,1894
117.678000,1887
117.678500,1881
117.679000,1877
117.679500,1872
117.680000,1869
117.680500,1870
117.681000,1865
117.681500,1860
117.682000,1858
117.682500,1854
117.683000,1851
117.683500,1848
117.684000,1844
117.684500,1845
117.685000,1847
117.685500,1839
117.686000,1846
117.686500,1836
117.687000,1834
117.687500,1833
117.688000,1832
117.688500,1831
117.689000,1829
117.689500,1829
117.690000,1828
117.690500,1826
117.691000,1826
117.691500,1824
117.692000,1388
117.692500,1651
117.693000,978
117.693500,1898
117.694000,1949
117.694500,1940
117.695000,1932
117.695500,1926
117.696000,1918
117.696500,1910
117.697000,1903
117.697500,1897
117.698000,1890
117.698500,1888
117.699000,1879
117.699500,1875
117.700000,1871
117.700500,1870
117.701000,1866
117.701500,1861
117.702000,1859
117.702500,1856
117.703000,1852
117.703500,1849
117.704000,1847
117.704500,1845
117.705000,1844
117.705500,1842
117.706000,1841
117.706500,1838
117.707000,1835
117.707500,1834
117.708000,1831
117.708500,1830
117.709000,1828
117.709500,1828
117.710000,1828
117.710500,1827
117.711000,1827
117.711500,1825
117.712000,1185
117.712500,1554
117.713000,830
117.713500,1812
117.714000,1952
117.714500,1942
117.715000,1934
117.715500,1927
117.716000,1920
117.716500,1910
117.717000,1905
117.717500,1898
117.718000,1892
117.718500,1885
117.719000,1880
117.719500,1877
117.720000,1876
117.720500,1868
117.721000,1868
117.721500,1861
117.722000,1860
117.722500,1855
117.723000,1853
117.723500,1850
117.724000,1848
117.724500,1844
117.725000,1842
117.725500,1842
117.726000,1842
117.726500,1838
117.727000,1835
117.727500,1834
117.728000,1833
117.728500,1831
117.729000,1830
117.729500,1827
117.730000,1829
117.730500,1828
117.731000,1829
117.731500,1825
117.732000,982
117.732500,1541
117.733000,452
117.733500,1739
117.734000,1927
117.734500,1921
117.735000,1914
117.735500,1908
117.736000,1902
117.736500,1894
117.737000,1885
117.737500,1881
117.738000,1879
117.738500,1872
117.739000,1868
117.739500,1861
117.740000,1863
117.740500,1863
117.741000,1859
117.741500,1853
117.742000,1850
117.742500,1849
117.743000,1846
117.743500,1844
117.744000,1842
117.744500,1839
117.745000,1840
117.745500,1837
117.746000,1837
117.746500,1834
117.747000,1831
117.747500,1831
117.748000,1829
117.748500,1828
117.749000,1826
117.749500,1825
117.750000,1825
117.750500,1825
117.751000,1826
117.751500,1824
117.752000,1333
117.752500,1512
117.753000,1214
117.753500,1703
117.754000,1945
117.754500,1934
117.755000,1926
117.755500,1923
117.756000,1915
117.756500,1906
117.757000,1899
117.757500,1894
117.758000,1890
117.758500,1883
117.759000,1878
117.759500,1874
117.760000,1872
117.760500,1868
117.761000,1864
117.761500,1860
117.762000,1859
117.762500,1854
117.763000,1852
117.763500,1850
117.764000,1847
117.764500,1843
117.765000,1843
117.765500,1841
117.766000,1840
117.766500,1836
117.767000,1835
117.767500,1833
117.768000,1831
117.768500,1830
117.769000,1830
117.769500,1829
117.770000,1826
117.770500,1830
117.771000,1830
117.771500,1825
117.772000,1039
117.772500,1308
117.773000,1485
117.773500,1595
117.774000,1959
117.774500,1950
117.775000,1944
117.775500,1933
117.776000,1927
117.776500,1916
117.777000,1909
117.777500,1903
117.778000,1897
117.778500,1886
117.779000,1885
117.779500,1880
117.780000,1876
117.780500,1875
117.781000,1870
117.781500,1867
117.782000,1861
117.782500,1859
117.783000,1855
117.783500,1852
117.784000,1848
117.784500,1848
117.785000,1848
117.785500,1847
117.786000,1846
117.786500,1839
117.787000,1838
117.787500,1835
117.788000,1835
117.788500,1834
117.789000,1832
117.789500,1830
117.790000,1833
117.790500,1830
117.791000,1828
117.791500,1827
117.792000,1152
117.792500,1437
117.793000,1207
117.793500,1573
117.794000,1937
117.794500,1930
117.795000,1923
117.795500,1915
117.796000,1910
117.796500,1901
117.797000,1894
117.797500,1888
117.798000,1885
117.798500,1878
117.799000,1874
117.799500,1873
117.800000,1867
117.800500,1862
117.801000,1862
117.801500,1857
117.802000,1854
117.802500,1850
117.803000,1850
117.803500,1847
117.804000,1844
117.804500,1842
117.805000,1839
117.805500,1842
117.806000,1841
117.806500,1834
117.807000,1833
117.807500,1833
117.808000,1831
117.808500,1830
117.809000,1830
117.809500,1828
117.810000,1826
117.810500,1827
117.811000,1826
117.811500,1824
117.812000,1194
117.812500,1642
117.813000,942
117.813500,1454
117.814000,1950
117.814500,1942
117.815000,1935
117.815500,1925
117.816000,1918
117.816500,1909
117.817000,1902
117.817500,1897
117.818000,1890
117.818500,1884
117.819000,1878
117.819500,1876
117.820000,1872
117.820500,1868
117.821000,1866
117.821500,1861
117.822000,1858
117.822500,1856
117.823000,1850
117.823500,1849
117.824000,1847
117.824500,1845
117.825000,1848
117.825500,1841
117.826000,1842
117.826500,1838
117.827000,1834
117.827500,1835
117.828000,1831
117.828500,1830
117.829000,1830
117.829500,1828
117.830000,1826
117.830500,1826
117.831000,1829
117.831500,1826
117.832000,1451
117.832500,1652
117.833000,1460
117.833500,1030
117.834000,1958
117.834500,1948
117.835000,1942
117.835500,1931
117.836000,1916
117.836500,1915
117.837000,1909
117.837500,1902
117.838000,1894
117.838500,1890
117.839000,1884
117.839500,1878
117.840000,1879
117.840500,1869
117.841000,1868
117.841500,1863
117.842000,1859
117.842500,1858
117.843000,1853
117.843500,1852
117.844000,1848
117.844500,1845
117.845000,1843
117.845500,1845
117.846000,1841
117.846500,1840
117.847000,1837
117.847500,1834
117.848000,1834
117.848500,1833
117.849000,1831
117.849500,1830
117.850000,1830
117.850500,1830
117.851000,1831
117.851500,1826
117.852000,1478
117.852500,1210
117.853000,798
117.853500,1752
117.854000,1972
117.854500,1961
117.855000,1950
117.855500,1942
117.856000,1934
117.856500,1924
117.857000,1917
117.857500,1908
117.858000,1902
117.858500,1897
117.859000,1891
117.859500,1886
117.860000,1879
117.860500,1877
117.861000,1874
117.861500,1867
117.862000,1866
117.862500,1863
117.863000,1859
117.863500,1850
117.864000,1854
117.864500,1850
117.865000,1852
117.865500,1846
117.866000,1847
117.866500,1843
117.867000,1841
117.867500,1840
117.868000,1836
117.868500,1834
117.869000,1832
117.869500,1830
117.870000,1831
117.870500,1828
117.871000,1830
117.871500,1828
117.872000,1631
117.872500,1010
117.873000,1669
117.873500,1590
117.874000,1930
117.874500,1924
117.875000,1918
117.875500,1911
117.876000,1904
117.876500,1896
117.877000,1891
117.877500,1886
117.878000,1883
117.878500,1874
117.879000,1870
117.879500,1867
117.880000,1864
117.880500,1865
117.881000,1859
117.881500,1854
117.882000,1852
117.882500,1849
117.883000,1848
117.883500,1845
117.884000,1843
117.884500,1841
117.885000,1845
117.885500,1839
117.886000,1837
117.886500,1834
117.887000,1832
117.887500,1832
117.888000,1830
117.888500,1829
117.889000,1828
117.889500,1825
117.890000,1827
117.890500,1826
117.891000,1827
117.891500,1824
117.892000,1459
117.892500,1428
117.893000,1030
117.893500,1641
117.894000,1955
117.894500,1946
117.895000,1936
117.895500,1930
117.896000,1923
117.896500,1913
117.897000,1905
117.897500,1898
117.898000,1895
117.898500,1888
117.899000,1884
117.899500,1878
117.900000,1879
117.900500,1870
117.901000,1867
117.901500,1864
117.902000,1861
117.902500,1857
117.903000,1854
117.903500,1849
117.904000,1849
117.904500,1846
117.905000,1847
117.905500,1842
117.906000,1841
117.906500,1838
117.907000,1837
117.907500,1834
117.908000,1834
117.908500,1831
117.909000,1830
117.909500,1829
117.910000,1830
117.910500,1828
117.911000,1829
117.911500,1826
117.912000,1700
117.912500,1168
117.913000,878
117.913500,1538
117.914000,1959
117.914500,1948
117.915000,1942
117.915500,1933
117.916000,1924
117.916500,1917
117.917000,1909
117.917500,1901
117.918000,1896
117.918500,1890
117.919000,1886
117.919500,1880
117.920000,1879
117.920500,1876
117.921000,1871
117.921500,1868
117.922000,1860
117.922500,1858
117.923000,1855
117.923500,1853
117.924000,1851
117.924500,1847
117.925000,1850
117.925500,1844
117.926000,1842
117.926500,1839
117.927000,1838
117.927500,1836
117.928000,1834
117.928500,1834
117.929000,1830
117.929500,1830
117.930000,1832
117.930500,1828
117.931000,1828
117.931500,1826
117.932000,1721
117.932500,1596
117.933000,1177
117.933500,1756
117.934000,1933
117.934500,1923
117.935000,1920
117.935500,1909
117.936000,1903
117.936500,1897
117.937000,1891
117.937500,1880
117.938000,1880
117.938500,1874
117.939000,1872
117.939500,1867
117.940000,1863
117.940500,1860
117.941000,1859
117.941500,1856
117.942000,1853
117.942500,1850
117.943000,1846
117.943500,1844
117.944000,1843
117.944500,1839
117.945000,1840
117.945500,1838
117.946000,1838
117.946500,1835
117.947000,1833
117.947500,1831
117.948000,1823
117.948500,1829
117.949000,1828
117.949500,1825
117.950000,1827
117.950500,1826
117.951000,1825
117.951500,1824
117.952000,1740
117.952500,1567
117.953000,1122
117.953500,1553
117.954000,1939
117.954500,1928
117.955000,1924
117.955500,1914
117.956000,1909
117.956500,1900
117.957000,1895
117.957500,1889
117.958000,1883
117.958500,1879
117.959000,1874
117.959500,1869
117.960000,1866
117.960500,1864
117.961000,1862
117.961500,1857
117.962000,1854
117.962500,1851
117.963000,1849
117.963500,1845
117.964000,1844
117.964500,1843
117.965000,1842
117.965500,1842
117.966000,1840
117.966500,1835
117.967000,1833
117.967500,1832
117.968000,1831
117.968500,1828
117.969000,1828
117.969500,1827
117.970000,1826
117.970500,1826
117.971000,1826
117.971500,1824
117.972000,1778
117.972500,1600
117.973000,1224
117.973500,425
117.974000,1940
117.974500,1938
117.975000,1934
117.975500,1924
117.976000,1916
117.976500,1908
117.977000,1903
117.977500,1897
117.978000,1889
117.978500,1886
117.979000,1879
117.979500,1874
117.980000,1876
117.980500,1871
117.981000,1870
117.981500,1860
117.982000,1858
117.982500,1854
117.983000,1851
117.983500,1849
117.984000,1848
117.984500,1847
117.985000,1841
117.985500,1844
117.986000,1841
117.986500,1836
117.987000,1834
117.987500,1833
117.988000,1832
117.988500,1831
117.989000,1830
117.989500,1828
117.990000,1827
117.990500,1827
117.991000,1828
117.991500,1825
117.992000,1665
117.992500,1384
117.993000,1346
117.993500,1343
117.994000,1934
117.994500,1924
117.995000,1922
117.995500,1911
117.996000,1906
117.996500,1898
117.997000,1891
117.997500,1886
117.998000,1880
117.998500,1875
117.999000,1874
117.999500,1866
118.000000,1869
118.000500,1866
118.001000,1862
118.001500,1854
118.002000,1852
118.002500,1849
118.003000,1848
118.003500,1846
118.004000,1842
118.004500,1840
118.005000,1839
118.005500,1838
118.006000,1837
118.006500,1834
118.007000,1832
118.007500,1831
118.008000,1830
118.008500,1828
118.009000,1827
118.009500,1824
118.010000,1824
118.010500,1824
118.011000,1825
118.011500,1822
118.012000,1734
118.012500,1568
118.013000,1505
118.013500,1152
118.014000,1924
118.014500,1917
118.015000,1910
118.015500,1903
118.016000,1898
118.016500,1890
118.017000,1885
118.017500,1881
118.018000,1877
118.018500,1872
118.019000,1866
118.019500,1864
118.020000,1865
118.020500,1859
118.021000,1855
118.021500,1852
118.022000,1848
118.022500,1847
118.023000,1846
118.023500,1842
118.024000,1839
118.024500,1839
118.025000,1839
118.025500,1837
118.026000,1836
118.026500,1833
118.027000,1832
118.027500,1830
118.028000,1830
118.028500,1826
118.029000,1826
118.029500,1825
118.030000,1826
118.030500,1825
118.031000,1824
118.031500,1822
118.032000,1710
118.032500,1353
118.033000,1461
118.033500,770
118.034000,1937
118.034500,1930
118.035000,1926
118.035500,1914
118.036000,1909
118.036500,1902
118.037000,1894
118.037500,1886
118.038000,1884
118.038500,1878
118.039000,1875
118.039500,1870
118.040000,1869
118.040500,1867
118.041000,1863
118.041500,1856
118.042000,1853
118.042500,1851
118.043000,1849
118.043500,1846
118.044000,1844
118.044500,1842
118.045000,1838
118.045500,1840
118.046000,1839
118.046500,1836
118.047000,1833
118.047500,1832
118.048000,1835
118.048500,1830
118.049000,1828
118.049500,1826
118.050000,1824
118.050500,1829
118.051000,1829
118.051500,1825
118.052000,1710
118.052500,1383
118.053000,1514
118.053500,0
118.054000,1969
118.054500,1964
118.055000,1954
118.055500,1940
118.056000,1932
118.056500,1922
118.057000,1915
118.057500,1908
118.058000,1900
118.058500,1895
118.059000,1889
118.059500,1884
118.060000,1885
118.060500,1877
118.061000,1872
118.061500,1867
118.062000,1865
118.062500,1862
118.063000,1858
118.063500,1856
118.064000,1853
118.064500,1850
118.065000,1851
118.065500,1846
118.066000,1844
118.066500,1842
118.067000,1839
118.067500,1836
118.068000,1836
118.068500,1834
118.069000,1832
118.069500,1832
118.070000,1830
118.070500,1830
118.071000,1830
118.071500,1827
118.072000,1729
118.072500,1437
118.073000,1696
118.073500,540
118.074000,1962
118.074500,1950
118.075000,1945
118.075500,1937
118.076000,1928
118.076500,1919
118.077000,1912
118.077500,1904
118.078000,1897
118.078500,1892
118.079000,1886
118.079500,1884
118.080000,1876
118.080500,1874
118.081000,1871
118.081500,1865
118.082000,1862
118.082500,1859
118.083000,1858
118.083500,1854
118.084000,1851
118.084500,1846
118.085000,1854
118.085500,1844
118.086000,1844
118.086500,1840
118.087000,1837
118.087500,1836
118.088000,1833
118.088500,1834
118.089000,1831
118.089500,1826
118.090000,1828
118.090500,1828
118.091000,1829
118.091500,1825
118.092000,1826
118.092500,1612
118.093000,1636
118.093500,1218
118.094000,1921
118.094500,1916
118.095000,1910
118.095500,1904
118.096000,1897
118.096500,1891
118.097000,1885
118.097500,1880
118.098000,1874
118.098500,1871
118.099000,1866
118.099500,1862
118.100000,1859
118.100500,1858
118.101000,1856
118.101500,1851
118.102000,1848
118.102500,1845
118.103000,1845
118.103500,1842
118.104000,1840
118.104500,1838
118.105000,1840
118.105500,1837
118.106000,1837
118.106500,1831
118.107000,1830
118.107500,1829
118.108000,1827
118.108500,1826
118.109000,1825
118.109500,1825
118.110000,1826
118.110500,1826
118.111000,1828
118.111500,1822
118.112000,1821
118.112500,1559
118.113000,1592
118.113500,0
118.114000,1957
118.114500,1949
118.115000,1946
118.115500,1933
118.116000,1926
118.116500,1916
118.117000,1910
118.117500,1903
118.118000,1895
118.118500,1890
118.119000,1885
118.119500,1880
118.120000,1874
118.120500,1873
118.121000,1870
118.121500,1865
118.122000,1862
118.122500,1858
118.123000,1855
118.123500,1853
118.124000,1851
118.124500,1848
118.125000,1849
118.125500,1845
118.126000,1844
118.126500,1842
118.127000,1837
118.127500,1834
118.128000,1834
118.128500,1831
118.129000,1832
118.129500,1830
118.130000,1831
118.130500,1829
118.131000,1828
118.131500,1826
118.132000,1811
118.132500,1000
118.133000,1798
118.133500,0
118.134000,1962
118.134500,1958
118.135000,1947
118.135500,1933
118.136000,1927
118.136500,1917
118.137000,1911
118.137500,1905
118.138000,1897
118.138500,1889
118.139000,1884
118.139500,1879
118.140000,1878
118.140500,1872
118.141000,1869
118.141500,1864
118.142000,1858
118.142500,1859
118.143000,1854
118.143500,1853
118.144000,1849
118.144500,1847
118.145000,1847
118.145500,1844
118.146000,1843
118.146500,1839
118.147000,1837
118.147500,1834
118.148000,1835
118.148500,1833
118.149000,1832
118.149500,1829
118.150000,1828
118.150500,1827
118.151000,1827
118.151500,1825
118.152000,1778
118.152500,1223
118.153000,1830
118.153500,504
118.154000,1933
118.154500,1925
118.155000,1917
118.155500,1910
118.156000,1905
118.156500,1898
118.157000,1890
118.157500,1885
118.158000,1881
118.158500,1876
118.159000,1872
118.159500,1868
118.160000,1865
118.160500,1860
118.161000,1858
118.161500,1856
118.162000,1851
118.162500,1849
118.163000,1848
118.163500,1846
118.164000,1844
118.164500,1842
118.165000,1842
118.165500,1838
118.166000,1840
118.166500,1834
118.167000,1834
118.167500,1830
118.168000,1830
118.168500,1828
118.169000,1827
118.169500,1826
118.170000,1826
118.170500,1824
118.171000,1826
118.171500,1823
118.172000,1822
118.172500,1655
118.173000,1780
118.173500,0
118.174000,1954
118.174500,1946
118.175000,1941
118.175500,1930
118.176000,1922
118.176500,1913
118.177000,1913
118.177500,1898
118.178000,1895
118.178500,1888
118.179000,1882
118.179500,1876
118.180000,1876
118.180500,1873
118.181000,1870
118.181500,1863
118.182000,1861
118.182500,1857
118.183000,1853
118.183500,1850
118.184000,1848
118.184500,1846
118.185000,1848
118.185500,1845
118.186000,1842
118.186500,1840
118.187000,1838
118.187500,1834
118.188000,1833
118.188500,1832
118.189000,1830
118.189500,1830
118.190000,1828
118.190500,1828
118.191000,1828
118.191500,1826
118.192000,1821
118.192500,1532
118.193000,1776
118.193500,0
118.194000,1955
118.194500,1946
118.195000,1938
118.195500,1930
118.196000,1923
118.196500,1914
118.197000,1907
118.197500,1901
118.198000,1894
118.198500,1890
118.199000,1883
118.199500,1878
118.200000,1878
118.200500,1872
118.201000,1869
118.201500,1862
118.202000,1861
118.202500,1858
118.203000,1854
118.203500,1852
118.204000,1850
118.204500,1845
118.205000,1845
118.205500,1841
118.206000,1842
118.206500,1840
118.207000,1836
118.207500,1835
118.208000,1834
118.208500,1831
118.209000,1830
118.209500,1828
118.210000,1827
118.210500,1830
118.211000,1830
118.211500,1826
118.212000,1824
118.212500,1256
118.213000,1813
118.213500,408
118.214000,1922
118.214500,1917
118.215000,1911
118.215500,1904
118.216000,1899
118.216500,1892
118.217000,1885
118.217500,1881
118.218000,1876
118.218500,1871
118.219000,1867
118.219500,1863
118.220000,1863
118.220500,1855
118.221000,1856
118.221500,1852
118.222000,1850
118.222500,1846
118.223000,1845
118.223500,1844
118.224000,1841
118.224500,1838
118.225000,1837
118.225500,1836
118.226000,1836
118.226500,1835
118.227000,1831
118.227500,1830
118.228000,1827
118.228500,1826
118.229000,1827
118.229500,1826
118.230000,1828
118.230500,1827
118.231000,1828
118.231500,1822
118.232000,1822
118.232500,884
118.233000,1730
118.233500,507
118.234000,1960
118.234500,1950
118.235000,1944
118.235500,1934
118.236000,1926
118.236500,1917
118.237000,1910
118.237500,1903
118.238000,1894
118.238500,1890
118.239000,1885
118.239500,1880
118.240000,1875
118.240500,1873
118.241000,1870
118.241500,1865
118.242000,1862
118.242500,1858
118.243000,1853
118.243500,1853
118.244000,1850
118.244500,1849
118.245000,1849
118.245500,1844
118.246000,1843
118.246500,1841
118.247000,1838
118.247500,1835
118.248000,1835
118.248500,1832
118.249000,1832
118.249500,1830
118.250000,1830
118.250500,1831
118.251000,1829
118.251500,1826
118.252000,1825
118.252500,1636
118.253000,1736
118.253500,885
118.254000,1954
118.254500,1946
118.255000,1938
118.255500,1929
118.256000,1922
118.256500,1913
118.257000,1905
118.257500,1894
118.258000,1894
118.258500,1887
118.259000,1884
118.259500,1878
118.260000,1879
118.260500,1870
118.261000,1868
118.261500,1862
118.262000,1860
118.262500,1858
118.263000,1853
118.263500,1851
118.264000,1850
118.264500,1846
118.265000,1847
118.265500,1843
118.266000,1842
118.266500,1838
118.267000,1840
118.267500,1836
118.268000,1834
118.268500,1832
118.269000,1832
118.269500,1827
118.270000,1830
118.270500,1828
118.271000,1828
118.271500,1825
118.272000,1824
118.272500,1202
118.273000,1630
118.273500,385
118.274000,1968
118.274500,1957
118.275000,1952
118.275500,1940
118.276000,1932
118.276500,1923
118.277000,1915
118.277500,1908
118.278000,1900
118.278500,1894
118.279000,1890
118.279500,1884
118.280000,1878
118.280500,1876
118.281000,1872
118.281500,1868
118.282000,1864
118.282500,1860
118.283000,1857
118.283500,1854
118.284000,1852
118.284500,1851
118.285000,1850
118.285500,1846
118.286000,1844
118.286500,1839
118.287000,1838
118.287500,1836
118.288000,1835
118.288500,1833
118.289000,1831
118.289500,1830
118.290000,1828
118.290500,1831
118.291000,1831
118.291500,1826
118.292000,1822
118.292500,1328
118.293000,1662
118.293500,571
118.294000,1955
118.294500,1965
118.295000,1954
118.295500,1945
118.296000,1938
118.296500,1927
118.297000,1920
118.297500,1912
118.298000,1904
118.298500,1898
118.299000,1892
118.299500,1887
118.300000,1885
118.300500,1878
118.301000,1876
118.301500,1868
118.302000,1866
118.302500,1863
118.303000,1860
118.303500,1857
118.304000,1853
118.304500,1852
118.305000,1848
118.305500,1851
118.306000,1849
118.306500,1842
118.307000,1840
118.307500,1839
118.308000,1835
118.308500,1835
118.309000,1834
118.309500,1833
118.310000,1829
118.310500,1830
118.311000,1833
118.311500,1828
118.312000,1827
118.312500,1278
118.313000,1832
118.313500,408
118.314000,1935
118.314500,1950
118.315000,1944
118.315500,1933
118.316000,1927
118.316500,1917
118.317000,1910
118.317500,1902
118.318000,1897
118.318500,1890
118.319000,1884
118.319500,1880
118.320000,1878
118.320500,1873
118.321000,1870
118.321500,1867
118.322000,1862
118.322500,1860
118.323000,1855
118.323500,1851
118.324000,1850
118.324500,1848
118.325000,1850
118.325500,1844
118.326000,1844
118.326500,1840
118.327000,1838
118.327500,1835
118.328000,1834
118.328500,1832
118.329000,1830
118.329500,1829
118.330000,1829
118.330500,1829
118.331000,1828
118.331500,1825
118.332000,1824
118.332500,1707
118.333000,1713
118.333500,302
118.334000,1961
118.334500,1951
118.335000,1941
118.335500,1934
118.336000,1928
118.336500,1916
118.337000,1910
118.337500,1904
118.338000,1898
118.338500,1890
118.339000,1886
118.339500,1881
118.340000,1879
118.340500,1873
118.341000,1870
118.341500,1863
118.342000,1862
118.342500,1858
118.343000,1855
118.343500,1853
118.344000,1851
118.344500,1847
118.345000,1850
118.345500,1845
118.346000,1844
118.346500,1840
118.347000,1838
118.347500,1835
118.348000,1836
118.348500,1832
118.349000,1830
118.349500,1830
118.350000,1830
118.350500,1829
118.351000,1830
118.351500,1827
118.352000,1824
118.352500,1612
118.353000,1705
118.353500,0
118.354000,1893
118.354500,1975
118.355000,1970
118.355500,1955
118.356000,1947
118.356500,1934
118.357000,1928
118.357500,1919
118.358000,1914
118.358500,1905
118.359000,1898
118.359500,1894
118.360000,1888
118.360500,1883
118.361000,1879
118.361500,1875
118.362000,1870
118.362500,1867
118.363000,1864
118.363500,1860
118.364000,1857
118.364500,1854
118.365000,1856
118.365500,1850
118.366000,1844
118.366500,1844
118.367000,1842
118.367500,1839
118.368000,1838
118.368500,1836
118.369000,1834
118.369500,1834
118.370000,1835
118.370500,1833
118.371000,1834
118.371500,1828
118.372000,1827
118.372500,1341
118.373000,1544
118.373500,636
118.374000,1833
118.374500,1950
118.375000,1943
118.375500,1934
118.376000,1926
118.376500,1916
118.377000,1909
118.377500,1902
118.378000,1895
118.378500,1893
118.379000,1885
118.379500,1879
118.380000,1880
118.380500,1874
118.381000,1874
118.381500,1865
118.382000,1861
118.382500,1856
118.383000,1856
118.383500,1853
118.384000,1849
118.384500,1848
118.385000,1848
118.385500,1845
118.386000,1843
118.386500,1839
118.387000,1837
118.387500,1836
118.388000,1835
118.388500,1834
118.389000,1830
118.389500,1831
118.390000,1833
118.390500,1830
118.391000,1828
118.391500,1826
118.392000,1826
118.392500,1093
118.393000,1555
118.393500,859
118.394000,1925
118.394500,1964
118.395000,1954
118.395500,1950
118.396000,1942
118.396500,1927
118.397000,1921
118.397500,1912
118.398000,1903
118.398500,1899
118.399000,1892
118.399500,1888
118.400000,1882
118.400500,1878
118.401000,1876
118.401500,1870
118.402000,1868
118.402500,1863
118.403000,1860
118.403500,1857
118.404000,1854
118.404500,1852
118.405000,1848
118.405500,1849
118.406000,1847
118.406500,1840
118.407000,1839
118.407500,1840
118.408000,1837
118.408500,1834
118.409000,1834
118.409500,1831
118.410000,1832
118.410500,1830
118.411000,1830
118.411500,1828
118.412000,1826
118.412500,1598
118.413000,1434
118.413500,1017
118.414000,1880
118.414500,1953
118.415000,1944
118.415500,1938
118.416000,1930
118.416500,1920
118.417000,1912
118.417500,1906
118.418000,1900
118.418500,1892
118.419000,1888
118.419500,1882
118.420000,1882
118.420500,1875
118.421000,1872
118.421500,1866
118.422000,1863
118.422500,1859
118.423000,1856
118.423500,1854
118.424000,1851
118.424500,1850
118.425000,1844
118.425500,1847
118.426000,1847
118.426500,1841
118.427000,1838
118.427500,1837
118.428000,1835
118.428500,1834
118.429000,1832
118.429500,1830
118.430000,1833
118.430500,1830
118.431000,1827
118.431500,1826
118.432000,1826
118.432500,929
118.433000,1430
118.433500,1178
118.434000,1855
118.434500,1931
118.435000,1926
118.435500,1921
118.436000,1915
118.436500,1905
118.437000,1899
118.437500,1892
118.438000,1888
118.438500,1882
118.439000,1878
118.439500,1872
118.440000,1870
118.440500,1867
118.441000,1866
118.441500,1862
118.442000,1855
118.442500,1852
118.443000,1850
118.443500,1847
118.444000,1846
118.444500,1843
118.445000,1842
118.445500,1840
118.446000,1839
118.446500,1836
118.447000,1834
118.447500,1832
118.448000,1833
118.448500,1829
118.449000,1829
118.449500,1826
118.450000,1831
118.450500,1827
118.451000,1826
118.451500,1826
118.452000,1825
118.452500,1140
118.453000,1373
118.453500,833
118.454000,1907
118.454500,1950
118.455000,1946
118.455500,1934
118.456000,1928
118.456500,1919
118.457000,1910
118.457500,1905
118.458000,1897
118.458500,1892
118.459000,1885
118.459500,1882
118.460000,1877
118.460500,1874
118.461000,1870
118.461500,1864
118.462000,1861
118.462500,1859
118.463000,1854
118.463500,1851
118.464000,1851
118.464500,1847
118.465000,1845
118.465500,1844
118.466000,1843
118.466500,1839
118.467000,1838
118.467500,1836
118.468000,1834
118.468500,1833
118.469000,1830
118.469500,1829
118.470000,1831
118.470500,1828
118.471000,1828
118.471500,1825
118.472000,1825
118.472500,1093
118.473000,1536
118.473500,1136
118.474000,1865
118.474500,1956
118.475000,1949
118.475500,1940
118.476000,1930
118.476500,1920
118.477000,1914
118.477500,1906
118.478000,1899
118.478500,1894
118.479000,1886
118.479500,1884
118.480000,1879
118.480500,1875
118.481000,1872
118.481500,1871
118.482000,1861
118.482500,1861
118.483000,1856
118.483500,1854
118.484000,1850
118.484500,1848
118.485000,1851
118.485500,1846
118.486000,1845
118.486500,1840
118.487000,1838
118.487500,1838
118.488000,1834
118.488500,1834
118.489000,1831
118.489500,1829
118.490000,1831
118.490500,1833
118.491000,1832
118.491500,1827
118.492000,1825
118.492500,1156
118.493000,1334
118.493500,1473
118.494000,1777
118.494500,1933
118.495000,1931
118.495500,1922
118.496000,1913
118.496500,1906
118.497000,1901
118.497500,1895
118.498000,1889
118.498500,1882
118.499000,1878
118.499500,1874
118.500000,1872
118.500500,1868
118.501000,1865
118.501500,1860
118.502000,1856
118.502500,1854
118.503000,1851
118.503500,1848
118.504000,1846
118.504500,1845
118.505000,1844
118.505500,1840
118.506000,1839
118.506500,1836
118.507000,1836
118.507500,1834
118.508000,1831
118.508500,1832
118.509000,1829
118.509500,1828
118.510000,1831
118.510500,1827
118.511000,1826
118.511500,1826
118.512000,1824
118.512500,1164
118.513000,1185
118.513500,914
118.514000,1653
118.514500,1934
118.515000,1924
118.515500,1918
118.516000,1912
118.516500,1905
118.517000,1895
118.517500,1892
118.518000,1885
118.518500,1882
118.519000,1877
118.519500,1871
118.520000,1867
118.520500,1865
118.521000,1862
118.521500,1858
118.522000,1855
118.522500,1851
118.523000,1851
118.523500,1847
118.524000,1846
118.524500,1842
118.525000,1845
118.525500,1839
118.526000,1839
118.526500,1836
118.527000,1834
118.527500,1832
118.528000,1832
118.528500,1830
118.529000,1829
118.529500,1828
118.530000,1831
118.530500,1827
118.531000,1827
118.531500,1824
118.532000,1824
118.532500,1271
118.533000,1090
118.533500,1270
118.534000,1673
118.534500,1958
118.535000,1952
118.535500,1944
118.536000,1936
118.536500,1925
118.537000,1918
118.537500,1910
118.538000,1902
118.538500,1898
118.539000,1890
118.539500,1886
118.540000,1885
118.540500,1878
118.541000,1875
118.541500,1868
118.542000,1865
118.542500,1862
118.543000,1858
118.543500,1856
118.544000,1853
118.544500,1851
118.545000,1847
118.545500,1846
118.546000,1846
118.546500,1842
118.547000,1840
118.547500,1839
118.548000,1836
118.548500,1834
118.549000,1833
118.549500,1830
118.550000,1834
118.550500,1830
118.551000,1828
118.551500,1826
118.552000,1826
118.552500,1514
118.553000,1616
118.553500,1519
118.554000,1722
118.554500,1942
118.555000,1938
118.555500,1929
118.556000,1923
118.556500,1913
118.557000,1904
118.557500,1899
118.558000,1893
118.558500,1886
118.559000,1883
118.559500,1877
118.560000,1878
118.560500,1870
118.561000,1865
118.561500,1863
118.562000,1860
118.562500,1855
118.563000,1853
118.563500,1851
118.564000,1849
118.564500,1846
118.565000,1847
118.565500,1844
118.566000,1844
118.566500,1839
118.567000,1838
118.567500,1834
118.568000,1834
118.568500,1833
118.569000,1830
118.569500,1829
118.570000,1830
118.570500,1829
118.571000,1828
118.571500,1826
118.572000,1824
118.572500,1696
118.573000,1694
118.573500,1076
118.574000,1737
118.574500,1958
118.575000,1954
118.575500,1942
118.576000,1935
118.576500,1924
118.577000,1916
118.577500,1910
118.578000,1902
118.578500,1898
118.579000,1890
118.579500,1886
118.580000,1882
118.580500,1877
118.581000,1878
118.581500,1868
118.582000,1863
118.582500,1863
118.583000,1858
118.583500,1857
118.584000,1851
118.584500,1850
118.585000,1848
118.585500,1845
118.586000,1845
118.586500,1841
118.587000,1839
118.587500,1838
118.588000,1833
118.588500,1835
118.589000,1834
118.589500,1830
118.590000,1830
118.590500,1829
118.591000,1832
118.591500,1828
118.592000,1826
118.592500,1497
118.593000,1355
118.593500,1257
118.594000,1354
118.594500,1933
118.595000,1927
118.595500,1920
118.596000,1914
118.596500,1905
118.597000,1899
118.597500,1892
118.598000,1886
118.598500,1882
118.599000,1874
118.599500,1873
118.600000,1870
118.600500,1865
118.601000,1868
118.601500,1858
118.602000,1854
118.602500,1853
118.603000,1850
118.603500,1851
118.604000,1846
118.604500,1843
118.605000,1844
118.605500,1844
118.606000,1840
118.606500,1836
118.607000,1834
118.607500,1833
118.608000,1833
118.608500,1832
118.609000,1829
118.609500,1828
118.610000,1828
118.610500,1827
118.611000,1828
118.611500,1824
118.612000,1825
118.612500,1610
118.613000,1054
118.613500,978
118.614000,679
118.614500,1954
118.615000,1946
118.615500,1936
118.616000,1929
118.616500,1920
118.617000,1912
118.617500,1906
118.618000,1900
118.618500,1892
118.619000,1886
118.619500,1882
118.620000,1875
118.620500,1873
118.621000,1872
118.621500,1866
118.622000,1863
118.622500,1860
118.623000,1858
118.623500,1854
118.624000,1851
118.624500,1850
118.625000,1851
118.625500,1844
118.626000,1843
118.626500,1842
118.627000,1841
118.627500,1835
118.628000,1834
118.628500,1833
118.629000,1833
118.629500,1830
118.630000,1834
118.630500,1829
118.631000,1829
118.631500,1823
118.632000,1826
118.632500,1612
118.633000,1656
118.633500,1420
118.634000,590
118.634500,1966
118.635000,1958
118.635500,1950
118.636000,1942
118.636500,1930
118.637000,1921
118.637500,1914
118.638000,1906
118.638500,1900
118.639000,1894
118.639500,1889
118.640000,1886
118.640500,1880
118.641000,1878
118.641500,1872
118.642000,1868
118.642500,1863
118.643000,1861
118.643500,1858
118.644000,1856
118.644500,1851
118.645000,1853
118.645500,1847
118.646000,1846
118.646500,1843
118.647000,1840
118.647500,1838
118.648000,1838
118.648500,1835
118.649000,1833
118.649500,1832
118.650000,1830
118.650500,1830
118.651000,1830
118.651500,1826
118.652000,1828
118.652500,1680
118.653000,950
118.653500,1088
118.654000,1104
118.654500,1955
118.655000,1953
118.655500,1944
118.656000,1936
118.656500,1926
118.657000,1918
118.657500,1911
118.658000,1904
118.658500,1897
118.659000,1893
118.659500,1885
118.660000,1884
118.660500,1878
118.661000,1875
118.661500,1870
118.662000,1866
118.662500,1862
118.663000,1860
118.663500,1857
118.664000,1852
118.664500,1850
118.665000,1848
118.665500,1846
118.666000,1845
118.666500,1842
118.667000,1842
118.667500,1837
118.668000,1836
118.668500,1835
118.669000,1835
118.669500,1831
118.670000,1830
118.670500,1831
118.671000,1830
118.671500,1828
118.672000,1828
118.672500,1584
118.673000,1349
118.673500,1086
118.674000,401
118.674500,1967
118.675000,1960
118.675500,1950
118.676000,1941
118.676500,1930
118.677000,1924
118.677500,1916
118.678000,1911
118.678500,1903
118.679000,1895
118.679500,1889
118.680000,1886
118.680500,1882
118.681000,1878
118.681500,1872
118.682000,1869
118.682500,1865
118.683000,1862
118.683500,1857
118.684000,1856
118.684500,1855
118.685000,1848
118.685500,1848
118.686000,1847
118.686500,1842
118.687000,1841
118.687500,1839
118.688000,1837
118.688500,1835
118.689000,1834
118.689500,1832
118.690000,1835
118.690500,1834
118.691000,1833
118.691500,1828
118.692000,1827
118.692500,1713
118.693000,1377
118.693500,1442
118.694000,1058
118.694500,1958
118.695000,1950
118.695500,1940
118.696000,1933
118.696500,1924
118.697000,1916
118.697500,1908
118.698000,1903
118.698500,1895
118.699000,1890
118.699500,1885
118.700000,1880
118.700500,1879
118.701000,1876
118.701500,1868
118.702000,1866
118.702500,1862
118.703000,1858
118.703500,1854
118.704000,1852
118.704500,1850
118.705000,1849
118.705500,1846
118.706000,1846
118.706500,1841
118.707000,1840
118.707500,1837
118.708000,1836
118.708500,1834
118.709000,1833
118.709500,1832
118.710000,1828
118.710500,1832
118.711000,1830
118.711500,1827
118.712000,1826
118.712500,1709
118.713000,1095
118.713500,1464
118.714000,140
118.714500,1964
118.715000,1958
118.715500,1946
118.716000,1937
118.716500,1929
118.717000,1918
118.717500,1912
118.718000,1906
118.718500,1898
118.719000,1894
118.719500,1888
118.720000,1884
118.720500,1878
118.721000,1877
118.721500,1870
118.722000,1866
118.722500,1862
118.723000,1860
118.723500,1856
118.724000,1854
118.724500,1851
118.725000,1848
118.725500,1847
118.726000,1846
118.726500,1843
118.727000,1839
118.727500,1838
118.728000,1836
118.728500,1835
118.729000,1834
118.729500,1832
118.730000,1831
118.730500,1830
118.731000,1831
118.731500,1828
118.732000,1827
118.732500,1712
118.733000,1526
118.733500,1412
118.734000,0
118.734500,1961
118.735000,1957
118.735500,1944
118.736000,1937
118.736500,1928
118.737000,1918
118.737500,1910
118.738000,1904
118.738500,1896
118.739000,1893
118.739500,1886
118.740000,1882
118.740500,1878
118.741000,1877
118.741500,1869
118.742000,1866
118.742500,1863
118.743000,1858
118.743500,1858
118.744000,1854
118.744500,1851
118.745000,1850
118.745500,1847
118.746000,1847
118.746500,1840
118.747000,1839
118.747500,1838
118.748000,1836
118.748500,1836
118.749000,1833
118.749500,1832
118.750000,1832
118.750500,1829
118.751000,1830
118.751500,1828
118.752000,1826
118.752500,1812
118.753000,1444
118.753500,1375
118.754000,341
118.754500,1937
118.755000,1931
118.755500,1922
118.756000,1916
118.756500,1908
118.757000,1901
118.757500,1894
118.758000,1889
118.758500,1884
118.759000,1878
118.759500,1874
118.760000,1874
118.760500,1870
118.761000,1868
118.761500,1860
118.762000,1857
118.762500,1854
118.763000,1851
118.763500,1848
118.764000,1847
118.764500,1841
118.765000,1847
118.765500,1840
118.766000,1841
118.766500,1838
118.767000,1835
118.767500,1834
118.768000,1832
118.768500,1830
118.769000,1830
118.769500,1829
118.770000,1826
118.770500,1827
118.771000,1827
118.771500,1824
118.772000,1823
118.772500,1818
118.773000,1376
118.773500,1618
118.774000,0
118.774500,1963
118.775000,1956
118.775500,1946
118.776000,1940
118.776500,1929
118.777000,1920
118.777500,1915
118.778000,1906
118.778500,1899
118.779000,1893
118.779500,1888
118.780000,1888
118.780500,1880
118.781000,1876
118.781500,1871
118.782000,1866
118.782500,1862
118.783000,1860
118.783500,1857
118.784000,1854
118.784500,1850
118.785000,1849
118.785500,1847
118.786000,1845
118.786500,1842
118.787000,1839
118.787500,1837
118.788000,1837
118.788500,1834
118.789000,1832
118.789500,1832
118.790000,1835
118.790500,1829
118.791000,1830
118.791500,1828
118.792000,1827
118.792500,1790
118.793000,1514
118.793500,1802
118.794000,210
118.794500,1931
118.795000,1929
118.795500,1918
118.796000,1912
118.796500,1904
118.797000,1897
118.797500,1892
118.798000,1885
118.798500,1879
118.799000,1875
118.799500,1870
118.800000,1866
118.800500,1864
118.801000,1862
118.801500,1857
118.802000,1854
118.802500,1853
118.803000,1848
118.803500,1848
118.804000,1845
118.804500,1840
118.805000,1840
118.805500,1840
118.806000,1840
118.806500,1836
118.807000,1835
118.807500,1832
118.808000,1832
118.808500,1829
118.809000,1828
118.809500,1826
118.810000,1827
118.810500,1826
118.811000,1825
118.811500,1824
118.812000,1823
118.812500,1812
118.813000,851
118.813500,1691
118.814000,959
118.814500,1934
118.815000,1929
118.815500,1922
118.816000,1914
118.816500,1904
118.817000,1899
118.817500,1894
118.818000,1888
118.818500,1883
118.819000,1878
118.819500,1874
118.820000,1874
118.820500,1868
118.821000,1866
118.821500,1858
118.822000,1855
118.822500,1854
118.823000,1851
118.823500,1849
118.824000,1846
118.824500,1844
118.825000,1843
118.825500,1841
118.826000,1841
118.826500,1837
118.827000,1837
118.827500,1834
118.828000,1832
118.828500,1831
118.829000,1829
118.829500,1827
118.830000,1826
118.830500,1830
118.831000,1830
118.831500,1824
118.832000,1823
118.832500,1788
118.833000,1582
118.833500,1659
118.834000,214
118.834500,1936
118.835000,1931
118.835500,1920
118.836000,1915
118.836500,1907
118.837000,1900
118.837500,1893
118.838000,1888
118.838500,1882
118.839000,1876
118.839500,1873
118.840000,1868
118.840500,1867
118.841000,1863
118.841500,1858
118.842000,1857
118.842500,1853
118.843000,1852
118.843500,1848
118.844000,1846
118.844500,1842
118.845000,1847
118.845500,1841
118.846000,1840
118.846500,1837
118.847000,1834
118.847500,1833
118.848000,1830
118.848500,1830
118.849000,1829
118.849500,1827
118.850000,1830
118.850500,1826
118.851000,1828
118.851500,1824
118.852000,1825
118.852500,1786
118.853000,1597
118.853500,1650
118.854000,0
118.854500,1956
118.855000,1957
118.855500,1947
118.856000,1940
118.856500,1929
118.857000,1921
118.857500,1913
118.858000,1906
118.858500,1901
118.859000,1894
118.859500,1888
118.860000,1888
118.860500,1879
118.861000,1876
118.861500,1870
118.862000,1867
118.862500,1863
118.863000,1860
118.863500,1857
118.864000,1854
118.864500,1849
118.865000,1848
118.865500,1848
118.866000,1846
118.866500,1843
118.867000,1840
118.867500,1838
118.868000,1837
118.868500,1834
118.869000,1833
118.869500,1832
118.870000,1832
118.870500,1831
118.871000,1823
118.871500,1827
118.872000,1826
118.872500,1810
118.873000,1071
118.873500,1691
118.874000,549
118.874500,1941
118.875000,1938
118.875500,1926
118.876000,1921
118.876500,1910
118.877000,1903
118.877500,1897
118.878000,1892
118.878500,1883
118.879000,1881
118.879500,1876
118.880000,1874
118.880500,1868
118.881000,1864
118.881500,1861
118.882000,1857
118.882500,1854
118.883000,1852
118.883500,1850
118.884000,1848
118.884500,1845
118.885000,1843
118.885500,1842
118.886000,1839
118.886500,1839
118.887000,1837
118.887500,1833
118.888000,1832
118.888500,1829
118.889000,1830
118.889500,1828
118.890000,1829
118.890500,1828
118.891000,1829
118.891500,1824
118.892000,1824
118.892500,1823
118.893000,978
118.893500,1744
118.894000,0
118.894500,1956
118.895000,1946
118.895500,1939
118.896000,1932
118.896500,1921
118.897000,1914
118.897500,1907
118.898000,1900
118.898500,1893
118.899000,1887
118.899500,1882
118.900000,1878
118.900500,1875
118.901000,1873
118.901500,1867
118.902000,1863
118.902500,1859
118.903000,1856
118.903500,1854
118.904000,1851
118.904500,1849
118.905000,1846
118.905500,1845
118.906000,1843
118.906500,1840
118.907000,1839
118.907500,1839
118.908000,1834
118.908500,1832
118.909000,1832
118.909500,1830
118.910000,1827
118.910500,1830
118.911000,1830
118.911500,1825
118.912000,1825
118.912500,1824
118.913000,1668
118.913500,1801
118.914000,346
118.914500,1958
118.915000,1955
118.915500,1942
118.916000,1934
118.916500,1924
118.917000,1916
118.917500,1908
118.918000,1902
118.918500,1895
118.919000,1889
118.919500,1885
118.920000,1880
118.920500,1879
118.921000,1877
118.921500,1867
118.922000,1865
118.922500,1860
118.923000,1858
118.923500,1855
118.924000,1856
118.924500,1849
118.925000,1847
118.925500,1847
118.926000,1844
118.926500,1841
118.927000,1838
118.927500,1838
118.928000,1837
118.928500,1833
118.929000,1831
118.929500,1830
118.930000,1830
118.930500,1830
118.931000,1829
118.931500,1827
118.932000,1826
118.932500,1822
118.933000,1082
118.933500,1808
118.934000,42
118.934500,1963
118.935000,1953
118.935500,1944
118.936000,1937
118.936500,1925
118.937000,1919
118.937500,1910
118.938000,1902
118.938500,1898
118.939000,1892
118.939500,1887
118.940000,1880
118.940500,1878
118.941000,1877
118.941500,1870
118.942000,1865
118.942500,1861
118.943000,1859
118.943500,1854
118.944000,1852
118.944500,1852
118.945000,1850
118.945500,1849
118.946000,1848
118.946500,1842
118.947000,1839
118.947500,1839
118.948000,1836
118.948500,1834
118.949000,1834
118.949500,1831
118.950000,1830
118.950500,1833
118.951000,1830
118.951500,1827
118.952000,1827
118.952500,1820
118.953000,1223
118.953500,1814
118.954000,324
118.954500,1931
118.955000,1962
118.955500,1949
118.956000,1942
118.956500,1931
118.957000,1922
118.957500,1914
118.958000,1908
118.958500,1900
118.959000,1894
118.959500,1889
118.960000,1888
118.960500,1879
118.961000,1878
118.961500,1871
118.962000,1868
118.962500,1862
118.963000,1860
118.963500,1858
118.964000,1854
118.964500,1852
118.965000,1850
118.965500,1849
118.966000,1848
118.966500,1843
118.967000,1840
118.967500,1840
118.968000,1837
118.968500,1834
118.969000,1834
118.969500,1832
118.970000,1831
118.970500,1830
118.971000,1830
118.971500,1827
118.972000,1827
118.972500,1823
118.973000,999
118.973500,1793
118.974000,400
118.974500,1956
118.975000,1971
118.975500,1957
118.976000,1949
118.976500,1939
118.977000,1929
118.977500,1922
118.978000,1914
118.978500,1908
118.979000,1900
118.979500,1894
118.980000,1893
118.980500,1884
118.981000,1882
118.981500,1875
118.982000,1872
118.982500,1866
118.983000,1860
118.983500,1861
118.984000,1857
118.984500,1855
118.985000,1850
118.985500,1851
118.986000,1848
118.986500,1845
118.987000,1842
118.987500,1841
118.988000,1839
118.988500,1837
118.989000,1834
118.989500,1833
118.990000,1835
118.990500,1831
118.991000,1831
118.991500,1828
118.992000,1827
118.992500,1829
118.993000,1462
118.993500,1615
118.994000,291
118.994500,1951
118.995000,1954
118.995500,1946
118.996000,1938
118.996500,1927
118.997000,1919
118.997500,1911
118.998000,1905
118.998500,1899
118.999000,1893
118.999500,1886
119.000000,1884
119.000500,1879
119.001000,1877
119.001500,1870
119.002000,1864
119.002500,1861
119.003000,1860
119.003500,1856
119.004000,1854
119.004500,1847
119.005000,1851
119.005500,1847
119.006000,1846
119.006500,1842
119.007000,1839
119.007500,1839
119.008000,1836
119.008500,1835
119.009000,1833
119.009500,1830
119.010000,1832
119.010500,1830
119.011000,1830
119.011500,1827
119.012000,1826
119.012500,1824
119.013000,1647
119.013500,1849
119.014000,619
119.014500,1965
119.015000,1960
119.015500,1947
119.016000,1940
119.016500,1929
119.017000,1920
119.017500,1913
119.018000,1907
119.018500,1900
119.019000,1894
119.019500,1886
119.020000,1884
119.020500,1879
119.021000,1875
119.021500,1871
119.022000,1866
119.022500,1864
119.023000,1860
119.023500,1858
119.024000,1855
119.024500,1850
119.025000,1852
119.025500,1849
119.026000,1848
119.026500,1843
119.027000,1839
119.027500,1838
119.028000,1837
119.028500,1834
119.029000,1832
119.029500,1830
119.030000,1830
119.030500,1828
119.031000,1830
119.031500,1827
119.032000,1827
119.032500,1827
119.033000,1239
119.033500,1738
119.034000,776
119.034500,1931
119.035000,1951
119.035500,1940
119.036000,1931
119.036500,1922
119.037000,1914
119.037500,1906
119.038000,1900
119.038500,1894
119.039000,1889
119.039500,1884
119.040000,1883
119.040500,1874
119.041000,1872
119.041500,1867
119.042000,1862
119.042500,1860
119.043000,1857
119.043500,1853
119.044000,1850
119.044500,1850
119.045000,1848
119.045500,1845
119.046000,1844
119.046500,1840
119.047000,1839
119.047500,1836
119.048000,1835
119.048500,1834
119.049000,1833
119.049500,1831
119.050000,1833
119.050500,1831
119.051000,1831
119.051500,1827
119.052000,1826
119.052500,1825
119.053000,1054
119.053500,1610
119.054000,937
119.054500,1854
119.055000,1938
119.055500,1931
119.056000,1922
119.056500,1914
119.057000,1906
119.057500,1898
119.058000,1893
119.058500,1887
119.059000,1882
119.059500,1876
119.060000,1876
119.060500,1870
119.061000,1867
119.061500,1863
119.062000,1857
119.062500,1858
119.063000,1854
119.063500,1850
119.064000,1848
119.064500,1846
119.065000,1844
119.065500,1843
119.066000,1842
119.066500,1839
119.067000,1836
119.067500,1835
119.068000,1833
119.068500,1836
119.069000,1830
119.069500,1830
119.070000,1827
119.070500,1831
119.071000,1831
119.071500,1826
119.072000,1824
119.072500,1824
119.073000,1518
119.073500,1552
119.074000,615
119.074500,1952
119.075000,1944
119.075500,1936
119.076000,1928
119.076500,1919
119.077000,1913
119.077500,1905
119.078000,1900
119.078500,1892
119.079000,1886
119.079500,1881
119.080000,1875
119.080500,1876
119.081000,1873
119.081500,1865
119.082000,1862
119.082500,1859
119.083000,1856
119.083500,1853
119.084000,1850
119.084500,1844
119.085000,1846
119.085500,1845
119.086000,1845
119.086500,1840
119.087000,1838
119.087500,1835
119.088000,1833
119.088500,1833
119.089000,1833
119.089500,1830
119.090000,1830
119.090500,1830
119.091000,1829
119.091500,1826
119.092000,1825
119.092500,1825
119.093000,1316
119.093500,1615
119.094000,1209
119.094500,1900
119.095000,1946
119.095500,1934
119.096000,1928
119.096500,1919
119.097000,1910
119.097500,1904
119.098000,1898
119.098500,1892
119.099000,1885
119.099500,1881
119.100000,1878
119.100500,1874
119.101000,1870
119.101500,1866
119.102000,1860
119.102500,1858
119.103000,1856
119.103500,1852
119.104000,1849
119.104500,1847
119.105000,1846
119.105500,1844
119.106000,1844
119.106500,1839
119.107000,1838
119.107500,1837
119.108000,1835
119.108500,1832
119.109000,1830
119.109500,1829
119.110000,1828
119.110500,1829
119.111000,1829
119.111500,1826
119.112000,1825
119.112500,1824
119.113000,1263
119.113500,1553
119.114000,190
119.114500,1523
119.115000,1993
119.115500,1979
119.116000,1969
119.116500,1955
119.117000,1945
119.117500,1938
119.118000,1929
119.118500,1920
119.119000,1912
119.119500,1906
119.120000,1900
119.120500,1897
119.121000,1891
119.121500,1884
119.122000,1881
119.122500,1875
119.123000,1872
119.123500,1868
119.124000,1864
119.124500,1860
119.125000,1860
119.125500,1856
119.126000,1854
119.126500,1851
119.127000,1846
119.127500,1845
119.128000,1843
119.128500,1840
119.129000,1839
119.129500,1837
119.130000,1837
119.130500,1835
119.131000,1835
119.131500,1831
119.132000,1831
119.132500,1828
119.133000,954
119.133500,1506
119.134000,1472
119.134500,1758
119.135000,1954
119.135500,1944
119.136000,1937
119.136500,1926
119.137000,1919
119.137500,1910
119.138000,1905
119.138500,1897
119.139000,1892
119.139500,1883
119.140000,1886
119.140500,1879
119.141000,1874
119.141500,1868
119.142000,1864
119.142500,1862
119.143000,1858
119.143500,1856
119.144000,1852
119.144500,1850
119.145000,1850
119.145500,1848
119.146000,1846
119.146500,1842
119.147000,1840
119.147500,1838
119.148000,1836
119.148500,1834
119.149000,1832
119.149500,1830
119.150000,1829
119.150500,1834
119.151000,1831
119.151500,1827
119.152000,1825
119.152500,1824
119.153000,1348
119.153500,1390
119.154000,1083
119.154500,1706
119.155000,1940
119.155500,1933
119.156000,1923
119.156500,1916
119.157000,1908
119.157500,1902
119.158000,1896
119.158500,1890
119.159000,1884
119.159500,1879
119.160000,1877
119.160500,1872
119.161000,1869
119.161500,1863
119.162000,1861
119.162500,1858
119.163000,1855
119.163500,1853
119.164000,1850
119.164500,1847
119.165000,1846
119.165500,1842
119.166000,1843
119.166500,1839
119.167000,1837
119.167500,1835
119.168000,1834
119.168500,1832
119.169000,1830
119.169500,1830
119.170000,1830
119.170500,1827
119.171000,1826
119.171500,1826
119.172000,1824
119.172500,1824
119.173000,1270
119.173500,1307
119.174000,1235
119.174500,1725
119.175000,1954
119.175500,1947
119.176000,1940
119.176500,1927
119.177000,1918
119.177500,1911
119.178000,1903
119.178500,1897
119.179000,1893
119.179500,1887
119.180000,1884
119.180500,1880
119.181000,1877
119.181500,1869
119.182000,1863
119.182500,1863
119.183000,1858
119.183500,1856
119.184000,1854
119.184500,1849
119.185000,1850
119.185500,1848
119.186000,1845
119.186500,1842
119.187000,1838
119.187500,1837
119.188000,1836
119.188500,1835
119.189000,1834
119.189500,1832
119.190000,1832
119.190500,1831
119.191000,1829
119.191500,1827
119.192000,1828
119.192500,1825
119.193000,1299
119.193500,1705
119.194000,1087
119.194500,1588
119.195000,1954
119.195500,1945
119.196000,1938
119.196500,1929
119.197000,1921
119.197500,1914
119.198000,1907
119.198500,1899
119.199000,1894
119.199500,1887
119.200000,1887
119.200500,1881
119.201000,1876
119.201500,1869
119.202000,1870
119.202500,1863
119.203000,1859
119.203500,1857
119.204000,1855
119.204500,1854
119.205000,1848
119.205500,1847
119.206000,1846
119.206500,1842
119.207000,1842
119.207500,1838
119.208000,1836
119.208500,1835
119.209000,1834
119.209500,1832
119.210000,1831
119.210500,1832
119.211000,1833
119.211500,1828
119.212000,1826
119.212500,1825
119.213000,1298
119.213500,1148
119.214000,875
119.214500,1366
119.215000,1968
119.215500,1959
119.216000,1952
119.216500,1938
119.217000,1928
119.217500,1922
119.218000,1913
119.218500,1907
119.219000,1899
119.219500,1891
119.220000,1891
119.220500,1884
119.221000,1880
119.221500,1875
119.222000,1868
119.222500,1869
119.223000,1865
119.223500,1861
119.224000,1857
119.224500,1853
119.225000,1850
119.225500,1848
119.226000,1849
119.226500,1845
119.227000,1842
119.227500,1840
119.228000,1838
119.228500,1835
119.229000,1835
119.229500,1833
119.230000,1831
119.230500,1832
119.231000,1832
119.231500,1829
119.232000,1828
119.232500,1826
119.233000,1364
119.233500,1250
119.234000,734
119.234500,1702
119.235000,1965
119.235500,1956
119.236000,1947
119.236500,1935
119.237000,1928
119.237500,1920
119.238000,1912
119.238500,1904
119.239000,1899
119.239500,1893
119.240000,1883
119.240500,1883
119.241000,1879
119.241500,1873
119.242000,1870
119.242500,1866
119.243000,1863
119.243500,1860
119.244000,1856
119.244500,1854
119.245000,1854
119.245500,1850
119.246000,1848
119.246500,1844
119.247000,1842
119.247500,1840
119.248000,1838
119.248500,1836
119.249000,1834
119.249500,1833
119.250000,1838
119.250500,1832
119.251000,1832
119.251500,1827
119.252000,1827
119.252500,1824
119.253000,1404
119.253500,1447
119.254000,924
119.254500,1756
119.255000,1950
119.255500,1941
119.256000,1933
119.256500,1922
119.257000,1914
119.257500,1908
119.258000,1901
119.258500,1894
119.259000,1889
119.259500,1884
119.260000,1881
119.260500,1877
119.261000,1872
119.261500,1866
119.262000,1863
119.262500,1860
119.263000,1858
119.263500,1855
119.264000,1852
119.264500,1849
119.265000,1847
119.265500,1844
119.266000,1844
119.266500,1840
119.267000,1838
119.267500,1837
119.268000,1836
119.268500,1834
119.269000,1832
119.269500,1831
119.270000,1831
119.270500,1832
119.271000,1831
119.271500,1826
119.272000,1826
119.272500,1825
119.273000,1438
119.273500,650
119.274000,1434
119.274500,1524
119.275000,1969
119.275500,1954
119.276000,1947
119.276500,1934
119.277000,1927
119.277500,1920
119.278000,1912
119.278500,1904
119.279000,1899
119.279500,1892
119.280000,1898
119.280500,1884
119.281000,1879
119.281500,1873
119.282000,1869
119.282500,1866
119.283000,1864
119.283500,1860
119.284000,1856
119.284500,1854
119.285000,1850
119.285500,1849
119.286000,1850
119.286500,1844
119.287000,1842
119.287500,1841
119.288000,1839
119.288500,1835
119.289000,1835
119.289500,1833
119.290000,1834
119.290500,1831
119.291000,1831
119.291500,1828
119.292000,1828
119.292500,1827
119.293000,1480
119.293500,1280
119.294000,1202
119.294500,654
119.295000,1971
119.295500,1960
119.296000,1952
119.296500,1938
119.297000,1932
119.297500,1923
119.298000,1916
119.298500,1907
119.299000,1900
119.299500,1891
119.300000,1889
119.300500,1886
119.301000,1882
119.301500,1876
119.302000,1870
119.302500,1869
119.303000,1864
119.303500,1863
119.304000,1858
119.304500,1854
119.305000,1849
119.305500,1853
119.306000,1851
119.306500,1846
119.307000,1844
119.307500,1841
119.308000,1838
119.308500,1836
119.309000,1835
119.309500,1833
119.310000,1838
119.310500,1833
119.311000,1832
119.311500,1829
119.312000,1827
119.312500,1826
119.313000,1606
119.313500,926
119.314000,1226
119.314500,1358
119.315000,1944
119.315500,1937
119.316000,1931
119.316500,1920
119.317000,1913
119.317500,1906
119.318000,1900
119.318500,1893
119.319000,1886
119.319500,1883
119.320000,1881
119.320500,1874
119.321000,1873
119.321500,1867
119.322000,1863
119.322500,1859
119.323000,1856
119.323500,1854
119.324000,1851
119.324500,1848
119.325000,1846
119.325500,1845
119.326000,1844
119.326500,1837
119.327000,1838
119.327500,1837
119.328000,1834
119.328500,1833
119.329000,1831
119.329500,1830
119.330000,1830
119.330500,1830
119.331000,1829
119.331500,1826
119.332000,1826
119.332500,1825
119.333000,1703
119.333500,1050
119.334000,1304
119.334500,1071
119.335000,1927
119.335500,1922
119.336000,1915
119.336500,1906
119.337000,1901
119.337500,1892
119.338000,1888
119.338500,1882
119.339000,1878
119.339500,1874
119.340000,1868
119.340500,1867
119.341000,1864
119.341500,1858
119.342000,1856
119.342500,1854
119.343000,1851
119.343500,1848
119.344000,1844
119.344500,1843
119.345000,1851
119.345500,1841
119.346000,1840
119.346500,1837
119.347000,1838
119.347500,1833
119.348000,1832
119.348500,1830
119.349000,1828
119.349500,1827
119.350000,1827
119.350500,1826
119.351000,1828
119.351500,1825
119.352000,1824
119.352500,1824
119.353000,1734
119.353500,942
119.354000,1326
119.354500,1123
119.355000,1976
119.355500,1960
119.356000,1953
119.356500,1941
119.357000,1933
119.357500,1924
119.358000,1916
119.358500,1908
119.359000,1902
119.359500,1896
119.360000,1895
119.360500,1885
119.361000,1882
119.361500,1875
119.362000,1874
119.362500,1869
119.363000,1865
119.363500,1862
119.364000,1859
119.364500,1855
119.365000,1853
119.365500,1851
119.366000,1849
119.366500,1845
119.367000,1844
119.367500,1842
119.368000,1839
119.368500,1835
119.369000,1836
119.369500,1831
119.370000,1838
119.370500,1832
119.371000,1831
119.371500,1828
119.372000,1828
119.372500,1826
119.373000,1670
119.373500,1269
119.374000,1638
119.374500,792
119.375000,1954
119.375500,1942
119.376000,1934
119.376500,1924
119.377000,1917
119.377500,1908
119.378000,1900
119.378500,1893
119.379000,1889
119.379500,1884
119.380000,1883
119.380500,1876
119.381000,1872
119.381500,1868
119.382000,1864
119.382500,1860
119.383000,1860
119.383500,1854
119.384000,1852
119.384500,1851
119.385000,1847
119.385500,1845
119.386000,1845
119.386500,1840
119.387000,1840
119.387500,1836
119.388000,1836
119.388500,1833
119.389000,1832
119.389500,1830
119.390000,1832
119.390500,1829
119.391000,1829
119.391500,1826
119.392000,1826
119.392500,1824
119.393000,1719
119.393500,1421
119.394000,1207
119.394500,1369
119.395000,1940
119.395500,1930
119.396000,1917
119.396500,1913
119.397000,1906
119.397500,1902
119.398000,1895
119.398500,1888
119.399000,1884
119.399500,1878
119.400000,1874
119.400500,1872
119.401000,1870
119.401500,1863
119.402000,1860
119.402500,1856
119.403000,1853
119.403500,1850
119.404000,1847
119.404500,1847
119.405000,1848
119.405500,1842
119.406000,1843
119.406500,1839
119.407000,1837
119.407500,1835
119.408000,1833
119.408500,1831
119.409000,1830
119.409500,1829
119.410000,1838
119.410500,1827
119.411000,1827
119.411500,1823
119.412000,1822
119.412500,1823
119.413000,1707
119.413500,890
119.414000,1511
119.414500,20
119.415000,1958
119.415500,1954
119.416000,1945
119.416500,1934
119.417000,1926
119.417500,1918
119.418000,1911
119.418500,1903
119.419000,1897
119.419500,1891
119.420000,1890
119.420500,1883
119.421000,1878
119.421500,1871
119.422000,1868
119.422500,1866
119.423000,1862
119.423500,1860
119.424000,1856
119.424500,1852
119.425000,1856
119.425500,1849
119.426000,1849
119.426500,1843
119.427000,1842
119.427500,1842
119.428000,1837
119.428500,1836
119.429000,1834
119.429500,1832
119.430000,1831
119.430500,1832
119.431000,1831
119.431500,1828
119.432000,1827
119.432500,1826
119.433000,1799
119.433500,1369
119.434000,1572
119.434500,506
119.435000,1962
119.435500,1959
119.436000,1951
119.436500,1935
119.437000,1928
119.437500,1918
119.438000,1912
119.438500,1906
119.439000,1898
119.439500,1893
119.440000,1891
119.440500,1884
119.441000,1880
119.441500,1873
119.442000,1870
119.442500,1866
119.443000,1862
119.443500,1860
119.444000,1858
119.444500,1854
119.445000,1852
119.445500,1850
119.446000,1849
119.446500,1844
119.447000,1842
119.447500,1840
119.448000,1837
119.448500,1836
119.449000,1835
119.449500,1833
119.450000,1832
119.450500,1832
119.451000,1832
119.451500,1827
119.452000,1826
119.452500,1826
119.453000,1790
119.453500,1086
119.454000,1620
119.454500,586
119.455000,1956
119.455500,1946
119.456000,1938
119.456500,1927
119.457000,1918
119.457500,1911
119.458000,1904
119.458500,1900
119.459000,1893
119.459500,1886
119.460000,1882
119.460500,1880
119.461000,1878
119.461500,1868
119.462000,1866
119.462500,1863
119.463000,1859
119.463500,1856
119.464000,1854
119.464500,1852
119.465000,1852
119.465500,1847
119.466000,1845
119.466500,1842
119.467000,1840
119.467500,1837
119.468000,1836
119.468500,1833
119.469000,1833
119.469500,1832
119.470000,1835
119.470500,1832
119.471000,1830
119.471500,1827
119.472000,1826
119.472500,1824
119.473000,1783
119.473500,891
119.474000,1562
119.474500,65
119.475000,1978
119.475500,1964
119.476000,1955
119.476500,1943
119.477000,1934
119.477500,1926
119.478000,1918
119.478500,1909
119.479000,1902
119.479500,1897
119.480000,1892
119.480500,1888
119.481000,1885
119.481500,1878
119.482000,1872
119.482500,1870
119.483000,1865
119.483500,1863
119.484000,1859
119.484500,1858
119.485000,1853
119.485500,1853
119.486000,1850
119.486500,1847
119.487000,1844
119.487500,1841
119.488000,1840
119.488500,1838
119.489000,1836
119.489500,1835
119.490000,1837
119.490500,1832
119.491000,1833
119.491500,1828
119.492000,1829
119.492500,1827
119.493000,1768
119.493500,1679
119.494000,1607
119.494500,0
119.495000,1974
119.495500,1966
119.496000,1956
119.496500,1944
119.497000,1936
119.497500,1927
119.498000,1919
119.498500,1911
119.499000,1904
119.499500,1899
119.500000,1897
119.500500,1890
119.501000,1890
119.501500,1877
119.502000,1874
119.502500,1869
119.503000,1866
119.503500,1863
119.504000,1858
119.504500,1856
119.505000,1854
119.505500,1852
119.506000,1850
119.506500,1846
119.507000,1845
119.507500,1842
119.508000,1841
119.508500,1838
119.509000,1836
119.509500,1836
119.510000,1838
119.510500,1832
119.511000,1832
119.511500,1829
119.512000,1829
119.512500,1826
119.513000,1808
119.513500,1182
119.514000,1617
119.514500,0
119.515000,1974
119.515500,1966
119.516000,1956
119.516500,1946
119.517000,1936
119.517500,1927
119.518000,1920
119.518500,1911
119.519000,1904
119.519500,1897
119.520000,1898
119.520500,1888
119.521000,1885
119.521500,1876
119.522000,1874
119.522500,1870
119.523000,1867
119.523500,1864
119.524000,1860
119.524500,1857
119.525000,1858
119.525500,1853
119.526000,1851
119.526500,1846
119.527000,1843
119.527500,1844
119.528000,1840
119.528500,1839
119.529000,1836
119.529500,1835
119.530000,1833
119.530500,1835
119.531000,1835
119.531500,1829
119.532000,1830
119.532500,1827
119.533000,1825
119.533500,1227
119.534000,1854
119.534500,338
119.535000,1959
119.535500,1954
119.536000,1946
119.536500,1935
119.537000,1926
119.537500,1919
119.538000,1911
119.538500,1903
119.539000,1898
119.539500,1888
119.540000,1889
119.540500,1883
119.541000,1879
119.541500,1872
119.542000,1867
119.542500,1865
119.543000,1862
119.543500,1859
119.544000,1857
119.544500,1853
119.545000,1850
119.545500,1850
119.546000,1849
119.546500,1843
119.547000,1843
119.547500,1844
119.548000,1838
119.548500,1836
119.549000,1834
119.549500,1833
119.550000,1836
119.550500,1830
119.551000,1831
119.551500,1827
119.552000,1826
119.552500,1824
119.553000,1820
119.553500,1122
119.554000,1831
119.554500,336
119.555000,1950
119.555500,1940
119.556000,1931
119.556500,1922
119.557000,1915
119.557500,1908
119.558000,1901
119.558500,1895
119.559000,1888
119.559500,1884
119.560000,1881
119.560500,1876
119.561000,1871
119.561500,1866
119.562000,1863
119.562500,1861
119.563000,1858
119.563500,1855
119.564000,1850
119.564500,1849
119.565000,1846
119.565500,1848
119.566000,1847
119.566500,1841
119.567000,1839
119.567500,1836
119.568000,1836
119.568500,1833
119.569000,1833
119.569500,1831
119.570000,1829
119.570500,1829
119.571000,1831
119.571500,1827
119.572000,1825
119.572500,1825
119.573000,1823
119.573500,1175
119.574000,1846
119.574500,1108
119.575000,1926
119.575500,1930
119.576000,1922
119.576500,1912
119.577000,1906
119.577500,1902
119.578000,1896
119.578500,1887
119.579000,1884
119.579500,1877
119.580000,1872
119.580500,1868
119.581000,1866
119.581500,1861
119.582000,1860
119.582500,1855
119.583000,1852
119.583500,1851
119.584000,1848
119.584500,1850
119.585000,1843
119.585500,1842
119.586000,1841
119.586500,1839
119.587000,1836
119.587500,1833
119.588000,1834
119.588500,1830
119.589000,1831
119.589500,1821
119.590000,1828
119.590500,1828
119.591000,1827
119.591500,1825
119.592000,1826
119.592500,1823
119.593000,1822
119.593500,1116
119.594000,1784
119.594500,0
119.595000,1975
119.595500,1964
119.596000,1955
119.596500,1942
119.597000,1932
119.597500,1924
119.598000,1916
119.598500,1912
119.599000,1903
119.599500,1897
119.600000,1892
119.600500,1886
119.601000,1884
119.601500,1877
119.602000,1872
119.602500,1870
119.603000,1866
119.603500,1861
119.604000,1860
119.604500,1855
119.605000,1856
119.605500,1851
119.606000,1850
119.606500,1846
119.607000,1842
119.607500,1842
119.608000,1840
119.608500,1837
119.609000,1836
119.609500,1835
119.610000,1834
119.610500,1833
119.611000,1832
119.611500,1829
119.612000,1828
119.612500,1827
119.613000,1820
119.613500,1359
119.614000,1742
119.614500,190
119.615000,1946
119.615500,1941
119.616000,1933
119.616500,1923
119.617000,1914
119.617500,1907
119.618000,1902
119.618500,1896
119.619000,1891
119.619500,1885
119.620000,1882
119.620500,1875
119.621000,1872
119.621500,1867
119.622000,1864
119.622500,1860
119.623000,1856
119.623500,1854
119.624000,1851
119.624500,1851
119.625000,1847
119.625500,1844
119.626000,1845
119.626500,1841
119.627000,1838
119.627500,1837
119.628000,1833
119.628500,1833
119.629000,1831
119.629500,1831
119.630000,1829
119.630500,1828
119.631000,1829
119.631500,1826
119.632000,1826
119.632500,1825
119.633000,1812
119.633500,1420
119.634000,1753
119.634500,310
119.635000,1950
119.635500,1944
119.636000,1936
119.636500,1927
119.637000,1919
119.637500,1910
119.638000,1904
119.638500,1898
119.639000,1892
119.639500,1886
119.640000,1884
119.640500,1875
119.641000,1875
119.641500,1868
119.642000,1864
119.642500,1860
119.643000,1858
119.643500,1856
119.644000,1854
119.644500,1851
119.645000,1848
119.645500,1844
119.646000,1843
119.646500,1841
119.647000,1840
119.647500,1837
119.648000,1833
119.648500,1833
119.649000,1834
119.649500,1830
119.650000,1833
119.650500,1828
119.651000,1831
119.651500,1826
119.652000,1826
119.652500,1825
119.653000,1823
119.653500,895
119.654000,1741
119.654500,48
119.655000,1956
119.655500,1954
119.656000,1946
119.656500,1938
119.657000,1926
119.657500,1918
119.658000,1913
119.658500,1906
119.659000,1896
119.659500,1893
119.660000,1886
119.660500,1889
119.661000,1881
119.661500,1873
119.662000,1869
119.662500,1865
119.663000,1864
119.663500,1858
119.664000,1856
119.664500,1852
119.665000,1854
119.665500,1851
119.666000,1848
119.666500,1844
119.667000,1841
119.667500,1839
119.668000,1838
119.668500,1835
119.669000,1836
119.669500,1833
119.670000,1833
119.670500,1832
119.671000,1830
119.671500,1829
119.672000,1827
119.672500,1826
119.673000,1823
119.673500,1354
119.674000,1830
119.674500,326
119.675000,1941
119.675500,1942
119.676000,1933
119.676500,1923
119.677000,1918
119.677500,1909
119.678000,1900
119.678500,1896
119.679000,1888
119.679500,1885
119.680000,1879
119.680500,1876
119.681000,1872
119.681500,1868
119.682000,1863
119.682500,1860
119.683000,1857
119.683500,1854
119.684000,1852
119.684500,1849
119.685000,1848
119.685500,1845
119.686000,1845
119.686500,1841
119.687000,1840
119.687500,1837
119.688000,1835
119.688500,1834
119.689000,1833
119.689500,1831
119.690000,1830
119.690500,1831
119.691000,1831
119.691500,1825
119.692000,1828
119.692500,1825
119.693000,1823
119.693500,1368
119.694000,1563
119.694500,168
119.695000,1971
119.695500,1960
119.696000,1952
119.696500,1940
119.697000,1933
119.697500,1923
119.698000,1915
119.698500,1912
119.699000,1900
119.699500,1895
119.700000,1894
119.700500,1886
119.701000,1882
119.701500,1877
119.702000,1871
119.702500,1868
119.703000,1863
119.703500,1861
119.704000,1857
119.704500,1855
119.705000,1856
119.705500,1850
119.706000,1850
119.706500,1846
119.707000,1843
119.707500,1841
119.708000,1839
119.708500,1837
119.709000,1835
119.709500,1833
119.710000,1831
119.710500,1832
119.711000,1832
119.711500,1829
119.712000,1827
119.712500,1827
119.713000,1826
119.713500,1184
119.714000,1514
119.714500,539
119.715000,1968
119.715500,1979
119.716000,1968
119.716500,1956
119.717000,1946
119.717500,1938
119.718000,1928
119.718500,1920
119.719000,1912
119.719500,1905
119.720000,1904
119.720500,1896
119.721000,1890
119.721500,1884
119.722000,1881
119.722500,1875
119.723000,1871
119.723500,1868
119.724000,1869
119.724500,1861
119.725000,1858
119.725500,1857
119.726000,1854
119.726500,1849
119.727000,1848
119.727500,1844
119.728000,1842
119.728500,1841
119.729000,1838
119.729500,1837
119.730000,1834
119.730500,1834
119.731000,1835
119.731500,1832
119.732000,1830
119.732500,1828
119.733000,1827
119.733500,1179
119.734000,1612
119.734500,382
119.735000,1871
119.735500,1955
119.736000,1946
119.736500,1935
119.737000,1928
119.737500,1920
119.738000,1913
119.738500,1906
119.739000,1900
119.739500,1894
119.740000,1890
119.740500,1884
119.741000,1886
119.741500,1874
119.742000,1870
119.742500,1866
119.743000,1863
119.743500,1861
119.744000,1858
119.744500,1855
119.745000,1851
119.745500,1849
119.746000,1849
119.746500,1845
119.747000,1843
119.747500,1840
119.748000,1838
119.748500,1836
119.749000,1836
119.749500,1831
119.750000,1835
119.750500,1831
119.751000,1830
119.751500,1827
119.752000,1827
119.752500,1828
119.753000,1826
119.753500,981
119.754000,1625
119.754500,110
119.755000,1910
119.755500,1966
119.756000,1957
119.756500,1944
119.757000,1936
119.757500,1928
119.758000,1919
119.758500,1912
119.759000,1906
119.759500,1899
119.760000,1894
119.760500,1886
119.761000,1884
119.761500,1877
119.762000,1882
119.762500,1870
119.763000,1866
119.763500,1863
119.764000,1858
119.764500,1856
119.765000,1856
119.765500,1851
119.766000,1851
119.766500,1847
119.767000,1844
119.767500,1843
119.768000,1841
119.768500,1838
119.769000,1836
119.769500,1834
119.770000,1836
119.770500,1833
119.771000,1832
119.771500,1828
119.772000,1830
119.772500,1826
119.773000,1828
119.773500,1358
119.774000,1496
119.774500,358
119.775000,1798
119.775500,1951
119.776000,1944
119.776500,1932
119.777000,1925
119.777500,1917
119.778000,1909
119.778500,1902
119.779000,1896
119.779500,1890
119.780000,1890
119.780500,1881
119.781000,1877
119.781500,1872
119.782000,1868
119.782500,1864
119.783000,1861
119.783500,1857
119.784000,1855
119.784500,1852
119.785000,1852
119.785500,1850
119.786000,1850
119.786500,1844
119.787000,1843
119.787500,1838
119.788000,1837
119.788500,1834
119.789000,1834
119.789500,1832
119.790000,1833
119.790500,1833
119.791000,1833
119.791500,1827
119.792000,1827
119.792500,1825
119.793000,1824
119.793500,1252
119.794000,1444
119.794500,868
119.795000,1673
119.795500,1956
119.796000,1948
119.796500,1937
119.797000,1930
119.797500,1922
119.798000,1914
119.798500,1907
119.799000,1902
119.799500,1895
119.800000,1890
119.800500,1887
119.801000,1883
119.801500,1874
119.802000,1871
119.802500,1866
119.803000,1863
119.803500,1858
119.804000,1857
119.804500,1860
119.805000,1852
119.805500,1849
119.806000,1848
119.806500,1844
119.807000,1842
119.807500,1841
119.808000,1838
119.808500,1837
119.809000,1834
119.809500,1833
119.810000,1835
119.810500,1831
119.811000,1833
119.811500,1827
119.812000,1827
119.812500,1826
119.813000,1827
119.813500,1108
119.814000,1466
119.814500,702
119.815000,1691
119.815500,1957
119.816000,1948
119.816500,1937
119.817000,1930
119.817500,1921
119.818000,1914
119.818500,1906
119.819000,1901
119.819500,1893
119.820000,1893
119.820500,1879
119.821000,1879
119.821500,1874
119.822000,1870
119.822500,1866
119.823000,1863
119.823500,1860
119.824000,1856
119.824500,1853
119.825000,1850
119.825500,1850
119.826000,1849
119.826500,1846
119.827000,1842
119.827500,1841
119.828000,1838
119.828500,1837
119.829000,1834
119.829500,1833
119.830000,1831
119.830500,1835
119.831000,1833
119.831500,1829
119.832000,1826
119.832500,1827
119.833000,1826
119.833500,1280
119.834000,1641
119.834500,1548
119.835000,1626
119.835500,1955
119.836000,1947
119.836500,1936
119.837000,1928
119.837500,1921
119.838000,1913
119.838500,1904
119.839000,1898
119.839500,1892
119.840000,1890
119.840500,1884
119.841000,1879
119.841500,1873
119.842000,1871
119.842500,1865
119.843000,1861
119.843500,1859
119.844000,1857
119.844500,1853
119.845000,1852
119.845500,1850
119.846000,1849
119.846500,1845
119.847000,1842
119.847500,1840
119.848000,1836
119.848500,1836
119.849000,1836
119.849500,1833
119.850000,1831
119.850500,1831
119.851000,1831
119.851500,1828
119.852000,1827
119.852500,1827
119.853000,1825
119.853500,1323
119.854000,1635
119.854500,1110
119.855000,1650
119.855500,1942
119.856000,1934
119.856500,1922
119.857000,1915
119.857500,1908
119.858000,1901
119.858500,1894
119.859000,1889
119.859500,1883
119.860000,1876
119.860500,1875
119.861000,1871
119.861500,1866
119.862000,1863
119.862500,1858
119.863000,1856
119.863500,1853
119.864000,1850
119.864500,1849
119.865000,1853
119.865500,1846
119.866000,1844
119.866500,1840
119.867000,1838
119.867500,1836
119.868000,1835
119.868500,1833
119.869000,1832
119.869500,1830
119.870000,1832
119.870500,1830
119.871000,1830
119.871500,1825
119.872000,1826
119.872500,1825
119.873000,1824
119.873500,1502
119.874000,1362
119.874500,708
119.875000,1576
119.875500,1972
119.876000,1963
119.876500,1952
119.877000,1940
119.877500,1933
119.878000,1926
119.878500,1917
119.879000,1911
119.879500,1904
119.880000,1901
119.880500,1892
119.881000,1888
119.881500,1881
119.882000,1877
119.882500,1872
119.883000,1869
119.883500,1865
119.884000,1863
119.884500,1858
119.885000,1856
119.885500,1854
119.886000,1853
119.886500,1849
119.887000,1845
119.887500,1844
119.888000,1841
119.888500,1838
119.889000,1838
119.889500,1834
119.890000,1834
119.890500,1835
119.891000,1832
119.891500,1832
119.892000,1829
119.892500,1828
119.893000,1827
119.893500,1313
119.894000,1398
119.894500,1168
119.895000,1622
119.895500,1955
119.896000,1951
119.896500,1940
119.897000,1928
119.897500,1922
119.898000,1914
119.898500,1908
119.899000,1900
119.899500,1894
119.900000,1891
119.900500,1884
119.901000,1882
119.901500,1875
119.902000,1870
119.902500,1866
119.903000,1864
119.903500,1860
119.904000,1858
119.904500,1854
119.905000,1858
119.905500,1850
119.906000,1850
119.906500,1846
119.907000,1841
119.907500,1841
119.908000,1838
119.908500,1837
119.909000,1835
119.909500,1834
119.910000,1832
119.910500,1832
119.911000,1831
119.911500,1830
119.912000,1827
119.912500,1827
119.913000,1827
119.913500,1270
119.914000,1183
119.914500,1504
119.915000,1300
119.915500,1960
119.916000,1953
119.916500,1942
119.917000,1933
119.917500,1925
119.918000,1918
119.918500,1910
119.919000,1904
119.919500,1898
119.920000,1891
119.920500,1887
119.921000,1884
119.921500,1876
119.922000,1872
119.922500,1868
119.923000,1865
119.923500,1860
119.924000,1859
119.924500,1856
119.925000,1853
119.925500,1850
119.926000,1850
119.926500,1845
119.927000,1842
119.927500,1842
119.928000,1839
119.928500,1836
119.929000,1834
119.929500,1833
119.930000,1832
119.930500,1832
119.931000,1831
119.931500,1830
119.932000,1828
119.932500,1826
119.933000,1826
119.933500,1310
119.934000,1091
119.934500,979
119.935000,924
119.935500,1978
119.936000,1969
119.936500,1956
119.937000,1948
119.937500,1939
119.938000,1933
119.938500,1922
119.939000,1911
119.939500,1907
119.940000,1905
119.940500,1896
119.941000,1891
119.941500,1889
119.942000,1880
119.942500,1874
119.943000,1871
119.943500,1867
119.944000,1864
119.944500,1860
119.945000,1862
119.945500,1855
119.946000,1854
119.946500,1850
119.947000,1847
119.947500,1845
119.948000,1837
119.948500,1842
119.949000,1839
119.949500,1836
119.950000,1836
119.950500,1838
119.951000,1838
119.951500,1830
119.952000,1830
119.952500,1829
119.953000,1828
119.953500,1439
119.954000,660
119.954500,1384
119.955000,1310
119.955500,1957
119.956000,1948
119.956500,1937
119.957000,1928
119.957500,1920
119.958000,1912
119.958500,1905
119.959000,1899
119.959500,1892
119.960000,1889
119.960500,1884
119.961000,1879
119.961500,1874
119.962000,1870
119.962500,1866
119.963000,1864
119.963500,1859
119.964000,1856
119.964500,1855
119.965000,1853
119.965500,1851
119.966000,1850
119.966500,1845
119.967000,1842
119.967500,1840
119.968000,1838
119.968500,1837
119.969000,1830
119.969500,1833
119.970000,1836
119.970500,1832
119.971000,1831
119.971500,1827
119.972000,1827
119.972500,1827
119.973000,1826
119.973500,1469
119.974000,1385
119.974500,1334
119.975000,1213
119.975500,1956
119.976000,1947
119.976500,1936
119.977000,1928
119.977500,1920
119.978000,1914
119.978500,1908
119.979000,1900
119.979500,1894
119.980000,1890
119.980500,1884
119.981000,1881
119.981500,1874
119.982000,1870
119.982500,1867
119.983000,1863
119.983500,1859
119.984000,1858
119.984500,1854
119.985000,1852
119.985500,1851
119.986000,1848
119.986500,1844
119.987000,1843
119.987500,1840
119.988000,1839
119.988500,1835
119.989000,1834
119.989500,1833
119.990000,1832
119.990500,1831
119.991000,1832
119.991500,1829
119.992000,1826
119.992500,1826
119.993000,1827
119.993500,1449
119.994000,1441
119.994500,1066
119.995000,1184
119.995500,1974
119.996000,1963
119.996500,1952
119.997000,1943
119.997500,1935
119.998000,1926
119.998500,1920
119.999000,1911
119.999500,1903
120.000000,1899
120.000500,1892
120.001000,1887
120.001500,1882
120.002000,1877
120.002500,1875
120.003000,1868
120.003500,1865
120.004000,1862
120.004500,1858
120.005000,1858
120.005500,1853
120.006000,1852
120.006500,1848
120.007000,1846
120.007500,1843
120.008000,1841
120.008500,1840
120.009000,1837
120.009500,1836
120.010000,1836
120.010500,1833
120.011000,1833
120.011500,1831
120.012000,1829
120.012500,1827
120.013000,1827
120.013500,1523
120.014000,1639
120.014500,1046
120.015000,861
120.015500,1957
120.016000,1948
120.016500,1938
120.017000,1932
120.017500,1923
120.018000,1914
120.018500,1907
120.019000,1900
120.019500,1894
120.020000,1894
120.020500,1885
120.021000,1881
120.021500,1876
120.022000,1871
120.022500,1865
120.023000,1863
120.023500,1860
120.024000,1858
120.024500,1855
120.025000,1850
120.025500,1850
120.026000,1848
120.026500,1845
120.027000,1842
120.027500,1840
120.028000,1839
120.028500,1837
120.029000,1834
120.029500,1832
120.030000,1833
120.030500,1833
120.031000,1831
120.031500,1829
120.032000,1828
120.032500,1826
120.033000,1826
120.033500,1734
120.034000,1290
120.034500,1163
120.035000,893
120.035500,1950
120.036000,1945
120.036500,1934
120.037000,1925
120.037500,1918
120.038000,1910
120.038500,1904
120.039000,1896
120.039500,1891
120.040000,1888
120.040500,1881
120.041000,1877
120.041500,1872
120.042000,1868
120.042500,1864
120.043000,1862
120.043500,1857
120.044000,1855
120.044500,1852
120.045000,1854
120.045500,1849
120.046000,1847
120.046500,1842
120.047000,1842
120.047500,1841
120.048000,1839
120.048500,1836
120.049000,1835
120.049500,1833
120.050000,1831
120.050500,1830
120.051000,1831
120.051500,1828
120.052000,1828
120.052500,1827
120.053000,1824
120.053500,1737
120.054000,1520
120.054500,1313
120.055000,46
120.055500,1974
120.056000,1964
120.056500,1952
120.057000,1943
120.057500,1933
120.058000,1925
120.058500,1918
120.059000,1910
120.059500,1905
120.060000,1900
120.060500,1893
120.061000,1890
120.061500,1882
120.062000,1877
120.062500,1874
120.063000,1870
120.063500,1866
120.064000,1862
120.064500,1860
120.065000,1857
120.065500,1855
120.066000,1854
120.066500,1848
120.067000,1845
120.067500,1843
120.068000,1842
120.068500,1839
120.069000,1837
120.069500,1836
120.070000,1835
120.070500,1833
120.071000,1834
120.071500,1834
120.072000,1830
120.072500,1828
120.073000,1826
120.073500,1808
120.074000,962
120.074500,1381
120.075000,162
120.075500,1968
120.076000,1960
120.076500,1948
120.077000,1939
120.077500,1930
120.078000,1923
120.078500,1915
120.079000,1906
120.079500,1899
120.080000,1899
120.080500,1892
120.081000,1887
120.081500,1880
120.082000,1874
120.082500,1872
120.083000,1867
120.083500,1864
120.084000,1861
120.084500,1858
120.085000,1854
120.085500,1852
120.086000,1850
120.086500,1848
120.087000,1845
120.087500,1844
120.088000,1840
120.088500,1835
120.089000,1837
120.089500,1836
120.090000,1837
120.090500,1835
120.091000,1835
120.091500,1831
120.092000,1828
120.092500,1827
120.093000,1829
120.093500,1826
120.094000,1263
120.094500,1359
120.095000,365
120.095500,1973
120.096000,1964
120.096500,1952
120.097000,1942
120.097500,1934
120.098000,1924
120.098500,1917
120.099000,1908
120.099500,1905
120.100000,1898
120.100500,1892
120.101000,1890
120.101500,1881
120.102000,1876
120.102500,1874
120.103000,1869
120.103500,1867
120.104000,1862
120.104500,1859
120.105000,1860
120.105500,1854
120.106000,1852
120.106500,1847
120.107000,1846
120.107500,1843
120.108000,1842
120.108500,1837
120.109000,1837
120.109500,1836
120.110000,1838
120.110500,1834
120.111000,1832
120.111500,1830
120.112000,1828
120.112500,1829
120.113000,1827
120.113500,1810
120.114000,789
120.114500,1482
120.115000,306
120.115500,1978
120.116000,1971
120.116500,1959
120.117000,1947
120.117500,1938
120.118000,1930
120.118500,1921
120.119000,1915
120.119500,1907
120.120000,1900
120.120500,1895
120.121000,1891
120.121500,1884
120.122000,1880
120.122500,1876
120.123000,1872
120.123500,1868
120.124000,1864
120.124500,1861
120.125000,1869
120.125500,1856
120.126000,1853
120.126500,1849
120.127000,1848
120.127500,1845
120.128000,1841
120.128500,1838
120.129000,1838
120.129500,1838
120.130000,1839
120.130500,1836
120.131000,1835
120.131500,1832
120.132000,1830
120.132500,1829
120.133000,1828
120.133500,1807
120.134000,1376
120.134500,1580
120.135000,113
120.135500,1959
120.136000,1954
120.136500,1941
120.137000,1933
120.137500,1924
120.138000,1916
120.138500,1907
120.139000,1903
120.139500,1897
120.140000,1889
120.140500,1886
120.141000,1880
120.141500,1874
120.142000,1872
120.142500,1869
120.143000,1864
120.143500,1860
120.144000,1858
120.144500,1856
120.145000,1855
120.145500,1850
120.146000,1850
120.146500,1847
120.147000,1844
120.147500,1840
120.148000,1839
120.148500,1837
120.149000,1836
120.149500,1834
120.150000,1834
120.150500,1832
120.151000,1832
120.151500,1828
120.152000,1827
120.152500,1827
120.153000,1824
120.153500,1821
120.154000,1132
120.154500,1579
120.155000,288
120.155500,1955
120.156000,1948
120.156500,1938
120.157000,1929
120.157500,1921
120.158000,1912
120.158500,1906
120.159000,1898
120.159500,1894
120.160000,1890
120.160500,1885
120.161000,1881
120.161500,1873
120.162000,1870
120.162500,1867
120.163000,1863
120.163500,1860
120.164000,1856
120.164500,1853
120.165000,1855
120.165500,1849
120.166000,1850
120.166500,1845
120.167000,1842
120.167500,1840
120.168000,1839
120.168500,1836
120.169000,1835
120.169500,1833
120.170000,1835
120.170500,1831
120.171000,1833
120.171500,1828
120.172000,1826
120.172500,1826
120.173000,1826
120.173500,1815
120.174000,1239
120.174500,1635
120.175000,0
120.175500,1990
120.176000,1979
120.176500,1963
120.177000,1952
120.177500,1944
120.178000,1934
120.178500,1926
120.179000,1920
120.179500,1911
120.180000,1908
120.180500,1899
120.181000,1895
120.181500,1886
120.182000,1881
120.182500,1878
120.183000,1874
120.183500,1870
120.184000,1866
120.184500,1859
120.185000,1864
120.185500,1858
120.186000,1856
120.186500,1851
120.187000,1849
120.187500,1846
120.188000,1844
120.188500,1844
120.189000,1841
120.189500,1838
120.190000,1840
120.190500,1836
120.191000,1836
120.191500,1831
120.192000,1830
120.192500,1830
120.193000,1829
120.193500,1774
120.194000,1347
120.194500,1560
120.195000,1145
120.195500,1948
120.196000,1942
120.196500,1934
120.197000,1924
120.197500,1916
120.198000,1910
120.198500,1902
120.199000,1897
120.199500,1891
120.200000,1886
120.200500,1882
120.201000,1878
120.201500,1872
120.202000,1869
120.202500,1864
120.203000,1861
120.203500,1858
120.204000,1855
120.204500,1852
120.205000,1850
120.205500,1847
120.206000,1850
120.206500,1842
120.207000,1842
120.207500,1838
120.208000,1837
120.208500,1836
120.209000,1834
120.209500,1831
120.210000,1835
120.210500,1830
120.211000,1831
120.211500,1826
120.212000,1827
120.212500,1825
120.213000,1826
120.213500,1816
120.214000,1018
120.214500,1587
120.215000,216
120.215500,1958
120.216000,1952
120.216500,1941
120.217000,1932
120.217500,1924
120.218000,1916
120.218500,1910
120.219000,1902
120.219500,1896
120.220000,1890
120.220500,1888
120.221000,1885
120.221500,1876
120.222000,1871
120.222500,1867
120.223000,1866
120.223500,1861
120.224000,1859
120.224500,1856
120.225000,1854
120.225500,1851
120.226000,1850
120.226500,1846
120.227000,1843
120.227500,1841
120.228000,1838
120.228500,1836
120.229000,1835
120.229500,1834
120.230000,1831
120.230500,1831
120.231000,1830
120.231500,1829
120.232000,1828
120.232500,1828
120.233000,1826
120.233500,1811
120.234000,1518
120.234500,1644
120.235000,0
120.235500,1955
120.236000,1952
120.236500,1940
120.237000,1930
120.237500,1923
120.238000,1920
120.238500,1909
120.239000,1902
120.239500,1896
120.240000,1891
120.240500,1885
120.241000,1882
120.241500,1874
120.242000,1870
120.242500,1867
120.243000,1863
120.243500,1863
120.244000,1857
120.244500,1855
120.245000,1851
120.245500,1851
120.246000,1849
120.246500,1846
120.247000,1844
120.247500,1840
120.248000,1838
120.248500,1836
120.249000,1833
120.249500,1834
120.250000,1834
120.250500,1830
120.251000,1832
120.251500,1829
120.252000,1828
120.252500,1828
120.253000,1826
120.253500,1822
120.254000,842
120.254500,1731
120.255000,36
120.255500,1962
120.256000,1954
120.256500,1941
120.257000,1933
120.257500,1925
120.258000,1917
120.258500,1910
120.259000,1902
120.259500,1896
120.260000,1892
120.260500,1887
120.261000,1882
120.261500,1877
120.262000,1872
120.262500,1868
120.263000,1863
120.263500,1863
120.264000,1858
120.264500,1857
120.265000,1853
120.265500,1851
120.266000,1849
120.266500,1847
120.267000,1844
120.267500,1841
120.268000,1839
120.268500,1838
120.269000,1836
120.269500,1834
120.270000,1833
120.270500,1832
120.271000,1831
120.271500,1828
120.272000,1829
120.272500,1827
120.273000,1826
120.273500,1824
120.274000,1540
120.274500,1680
120.275000,0
120.275500,1991
120.276000,1982
120.276500,1968
120.277000,1959
120.277500,1949
120.278000,1938
120.278500,1930
120.279000,1923
120.279500,1916
120.280000,1911
120.280500,1908
120.281000,1898
120.281500,1890
120.282000,1885
120.282500,1880
120.283000,1874
120.283500,1872
120.284000,1868
120.284500,1864
120.285000,1863
120.285500,1858
120.286000,1857
120.286500,1852
120.287000,1851
120.287500,1847
120.288000,1846
120.288500,1843
120.289000,1840
120.289500,1839
120.290000,1839
120.290500,1835
120.291000,1838
120.291500,1831
120.292000,1832
120.292500,1830
120.293000,1830
120.293500,1826
120.294000,1471
120.294500,1834
120.295000,982
120.295500,1930
120.296000,1944
120.296500,1936
120.297000,1927
120.297500,1917
120.298000,1912
120.298500,1906
120.299000,1898
120.299500,1893
120.300000,1892
120.300500,1884
120.301000,1879
120.301500,1872
120.302000,1869
120.302500,1865
120.303000,1861
120.303500,1859
120.304000,1855
120.304500,1853
120.305000,1850
120.305500,1848
120.306000,1847
120.306500,1844
120.307000,1842
120.307500,1839
120.308000,1838
120.308500,1836
120.309000,1834
120.309500,1832
120.310000,1832
120.310500,1831
120.311000,1831
120.311500,1827
120.312000,1826
120.312500,1826
120.313000,1827
120.313500,1824
120.314000,1436
120.314500,1853
120.315000,385
120.315500,1930
120.316000,1927
120.316500,1919
120.317000,1911
120.317500,1904
120.318000,1899
120.318500,1892
120.319000,1887
120.319500,1880
120.320000,1880
120.320500,1874
120.321000,1871
120.321500,1865
120.322000,1861
120.322500,1858
120.323000,1854
120.323500,1853
120.324000,1850
120.324500,1848
120.325000,1845
120.325500,1844
120.326000,1843
120.326500,1840
120.327000,1838
120.327500,1836
120.328000,1834
120.328500,1832
120.329000,1831
120.329500,1829
120.330000,1828
120.330500,1828
120.331000,1829
120.331500,1827
120.332000,1824
120.332500,1823
120.333000,1824
120.333500,1823
120.334000,1634
120.334500,1771
120.335000,0
120.335500,1952
120.336000,1978
120.336500,1964
120.337000,1955
120.337500,1945
120.338000,1936
120.338500,1927
120.339000,1918
120.339500,1912
120.340000,1904
120.340500,1900
120.341000,1895
120.341500,1888
120.342000,1882
120.342500,1879
120.343000,1874
120.343500,1871
120.344000,1866
120.344500,1863
120.345000,1865
120.345500,1861
120.346000,1858
120.346500,1852
120.347000,1849
120.347500,1845
120.348000,1844
120.348500,1841
120.349000,1838
120.349500,1839
120.350000,1842
120.350500,1838
120.351000,1836
120.351500,1831
120.352000,1831
120.352500,1829
120.353000,1828
120.353500,1828
120.354000,1620
120.354500,1669
120.355000,84
120.355500,1907
120.356000,1960
120.356500,1950
120.357000,1941
120.357500,1931
120.358000,1924
120.358500,1915
120.359000,1905
120.359500,1902
120.360000,1896
120.360500,1891
120.361000,1887
120.361500,1880
120.362000,1874
120.362500,1871
120.363000,1869
120.363500,1865
120.364000,1861
120.364500,1858
120.365000,1858
120.365500,1854
120.366000,1853
120.366500,1848
120.367000,1845
120.367500,1843
120.368000,1840
120.368500,1837
120.369000,1838
120.369500,1836
120.370000,1838
120.370500,1834
120.371000,1833
120.371500,1829
120.372000,1827
120.372500,1827
120.373000,1828
120.373500,1824
120.374000,1548
120.374500,1656
120.375000,589
120.375500,1959
120.376000,1954
120.376500,1943
120.377000,1935
120.377500,1927
120.378000,1917
120.378500,1911
120.379000,1903
120.379500,1897
120.380000,1891
120.380500,1887
120.381000,1884
120.381500,1876
120.382000,1873
120.382500,1868
120.383000,1865
120.383500,1862
120.384000,1858
120.384500,1856
120.385000,1863
120.385500,1851
120.386000,1849
120.386500,1846
120.387000,1843
120.387500,1840
120.388000,1840
120.388500,1837
120.389000,1836
120.389500,1833
120.390000,1835
120.390500,1824
120.391000,1833
120.391500,1830
120.392000,1827
120.392500,1826
120.393000,1827
120.393500,1825
120.394000,1125
120.394500,1473
120.395000,389
120.395500,1964
120.396000,1957
120.396500,1946
120.397000,1937
120.397500,1927
120.398000,1921
120.398500,1911
120.399000,1908
120.399500,1899
120.400000,1893
120.400500,1889
120.401000,1884
120.401500,1878
120.402000,1876
120.402500,1869
120.403000,1868
120.403500,1862
120.404000,1859
120.404500,1856
120.405000,1860
120.405500,1852
120.406000,1851
120.406500,1846
120.407000,1846
120.407500,1842
120.408000,1841
120.408500,1839
120.409000,1838
120.409500,1834
120.410000,1837
120.410500,1834
120.411000,1836
120.411500,1831
120.412000,1829
120.412500,1828
120.413000,1826
120.413500,1826
120.414000,1514
120.414500,1506
120.415000,979
120.415500,1930
120.416000,1948
120.416500,1939
120.417000,1931
120.417500,1922
120.418000,1915
120.418500,1908
120.419000,1902
120.419500,1895
120.420000,1888
120.420500,1885
120.421000,1882
120.421500,1874
120.422000,1870
120.422500,1867
120.423000,1863
120.423500,1860
120.424000,1857
120.424500,1854
120.425000,1852
120.425500,1850
120.426000,1850
120.426500,1846
120.427000,1845
120.427500,1840
120.428000,1839
120.428500,1836
120.429000,1837
120.429500,1833
120.430000,1832
120.430500,1830
120.431000,1831
120.431500,1828
120.432000,1827
120.432500,1824
120.433000,1826
120.433500,1824
120.434000,1246
120.434500,1572
120.435000,757
120.435500,1890
120.436000,1954
120.436500,1941
120.437000,1933
120.437500,1924
120.438000,1917
120.438500,1910
120.439000,1903
120.439500,1896
120.440000,1890
120.440500,1886
120.441000,1882
120.441500,1875
120.442000,1871
120.442500,1868
120.443000,1864
120.443500,1861
120.444000,1860
120.444500,1855
120.445000,1856
120.445500,1852
120.446000,1850
120.446500,1846
120.447000,1843
120.447500,1842
120.448000,1841
120.448500,1836
120.449000,1836
120.449500,1834
120.450000,1838
120.450500,1832
120.451000,1832
120.451500,1829
120.452000,1826
120.452500,1828
120.453000,1826
120.453500,1825
120.454000,1230
120.454500,1515
120.455000,735
120.455500,1820
120.456000,1970
120.456500,1955
120.457000,1946
120.457500,1937
120.458000,1928
120.458500,1920
120.459000,1913
120.459500,1905
120.460000,1900
120.460500,1894
120.461000,1890
120.461500,1884
120.462000,1878
120.462500,1875
120.463000,1870
120.463500,1866
120.464000,1863
120.464500,1859
120.465000,1861
120.465500,1854
120.466000,1853
120.466500,1848
120.467000,1846
120.467500,1844
120.468000,1840
120.468500,1839
120.469000,1836
120.469500,1837
120.470000,1833
120.470500,1837
120.471000,1837
120.471500,1834
120.472000,1830
120.472500,1827
120.473000,1827
120.473500,1827
120.474000,1361
120.474500,1428
120.475000,698
120.475500,1727
120.476000,1967
120.476500,1952
120.477000,1942
120.477500,1934
120.478000,1925
120.478500,1917
120.479000,1910
120.479500,1903
120.480000,1898
120.480500,1894
120.481000,1890
120.481500,1880
120.482000,1877
120.482500,1873
120.483000,1870
120.483500,1864
120.484000,1862
120.484500,1858
120.485000,1856
120.485500,1854
120.486000,1853
120.486500,1848
120.487000,1847
120.487500,1843
120.488000,1842
120.488500,1839
120.489000,1837
120.489500,1835
120.490000,1836
120.490500,1834
120.491000,1834
120.491500,1831
120.492000,1830
120.492500,1826
120.493000,1828
120.493500,1825
120.494000,1090
120.494500,1372
120.495000,740
120.495500,1670
120.496000,1961
120.496500,1951
120.497000,1938
120.497500,1930
120.498000,1922
120.498500,1914
120.499000,1908
120.499500,1900
120.500000,1896
120.500500,1890
120.501000,1887
120.501500,1879
120.502000,1875
120.502500,1870
120.503000,1866
120.503500,1864
120.504000,1860
120.504500,1858
120.505000,1856
120.505500,1854
120.506000,1851
120.506500,1846
120.507000,1845
120.507500,1844
120.508000,1841
120.508500,1839
120.509000,1836
120.509500,1834
120.510000,1834
120.510500,1832
120.511000,1833
120.511500,1829
120.512000,1834
120.512500,1828
120.513000,1827
120.513500,1825
120.514000,1184
120.514500,1486
120.515000,973
120.515500,1821
120.516000,1954
120.516500,1944
120.517000,1934
120.517500,1926
120.518000,1918
120.518500,1911
120.519000,1904
120.519500,1899
120.520000,1896
120.520500,1890
120.521000,1888
120.521500,1877
120.522000,1872
120.522500,1867
120.523000,1866
120.523500,1861
120.524000,1859
120.524500,1858
120.525000,1858
120.525500,1852
120.526000,1850
120.526500,1843
120.527000,1845
120.527500,1841
120.528000,1840
120.528500,1837
120.529000,1835
120.529500,1835
120.530000,1833
120.530500,1832
120.531000,1831
120.531500,1830
120.532000,1828
120.532500,1826
120.533000,1828
120.533500,1826
120.534000,1502
120.534500,1238
120.535000,1324
120.535500,1851
120.536000,1944
120.536500,1934
120.537000,1925
120.537500,1918
120.538000,1911
120.538500,1902
120.539000,1897
120.539500,1892
120.540000,1890
120.540500,1885
120.541000,1880
120.541500,1875
120.542000,1867
120.542500,1864
120.543000,1861
120.543500,1858
120.544000,1855
120.544500,1852
120.545000,1850
120.545500,1849
120.546000,1848
120.546500,1843
120.547000,1841
120.547500,1839
120.548000,1838
120.548500,1835
120.549000,1835
120.549500,1833
120.550000,1836
120.550500,1832
120.551000,1832
120.551500,1829
120.552000,1827
120.552500,1826
120.553000,1825
120.553500,1823
120.554000,1423
120.554500,1545
120.555000,1144
120.555500,1602
120.556000,1978
120.556500,1966
120.557000,1955
120.557500,1943
120.558000,1936
120.558500,1928
120.559000,1921
120.559500,1912
120.560000,1908
120.560500,1901
120.561000,1895
120.561500,1888
120.562000,1885
120.562500,1878
120.563000,1874
120.563500,1870
120.564000,1868
120.564500,1864
120.565000,1864
120.565500,1858
120.566000,1857
120.566500,1852
120.567000,1849
120.567500,1848
120.568000,1844
120.568500,1842
120.569000,1840
120.569500,1840
120.570000,1837
120.570500,1835
120.571000,1834
120.571500,1832
120.572000,1832
120.572500,1831
120.573000,1828
120.573500,1828
120.574000,1536
120.574500,1514
120.575000,1225
120.575500,1540
120.576000,1965
120.576500,1955
120.577000,1946
120.577500,1936
120.578000,1928
120.578500,1921
120.579000,1911
120.579500,1907
120.580000,1904
120.580500,1897
120.581000,1894
120.581500,1883
120.582000,1878
120.582500,1874
120.583000,1870
120.583500,1868
120.584000,1862
120.584500,1860
120.585000,1859
120.585500,1855
120.586000,1854
120.586500,1848
120.587000,1848
120.587500,1845
120.588000,1842
120.588500,1841
120.589000,1839
120.589500,1836
120.590000,1836
120.590500,1835
120.591000,1833
120.591500,1832
120.592000,1830
120.592500,1829
120.593000,1828
120.593500,1826
120.594000,1338
120.594500,1118
120.595000,1471
120.595500,1698
120.596000,1975
120.596500,1966
120.597000,1954
120.597500,1944
120.598000,1935
120.598500,1927
120.599000,1919
120.599500,1912
120.600000,1907
120.600500,1900
120.601000,1894
120.601500,1886
120.602000,1883
120.602500,1878
120.603000,1875
120.603500,1871
120.604000,1868
120.604500,1864
120.605000,1864
120.605500,1859
120.606000,1857
120.606500,1851
120.607000,1848
120.607500,1846
120.608000,1843
120.608500,1842
120.609000,1840
120.609500,1836
120.610000,1835
120.610500,1836
120.611000,1835
120.611500,1832
120.612000,1830
120.612500,1829
120.613000,1828
120.613500,1828
120.614000,1352
120.614500,769
120.615000,1380
120.615500,1464
120.616000,1956
120.616500,1948
120.617000,1938
120.617500,1930
120.618000,1922
120.618500,1914
120.619000,1908
120.619500,1902
120.620000,1896
120.620500,1890
120.621000,1886
120.621500,1878
120.622000,1874
120.622500,1871
120.623000,1866
120.623500,1864
120.624000,1862
120.624500,1856
120.625000,1857
120.625500,1853
120.626000,1850
120.626500,1846
120.627000,1845
120.627500,1841
