# Subject: S01
# Trial: fatigue
# Notes: 
# Muscles: Ch1
# fs=2000 Hz, nch=1, vref=3.3 V
t_s,ch1_code
182.025000,1799
182.025500,1798
182.026000,1813
182.026500,1816
182.027000,1799
182.027500,1823
182.028000,1812
182.028500,1802
182.029000,1796
182.029500,1810
182.030000,1799
182.030500,1797
182.031000,1809
182.031500,1814
182.032000,1801
182.032500,1815
182.033000,1811
182.033500,1802
182.034000,1799
182.034500,1816
182.035000,1805
182.035500,1807
182.036000,1816
182.036500,1818
182.037000,1805
182.037500,1826
182.038000,1816
182.038500,1807
182.039000,1800
182.039500,1815
182.040000,1810
182.040500,1806
182.041000,1816
182.041500,1818
182.042000,1803
182.042500,1818
182.043000,1814
182.043500,1804
182.044000,1796
182.044500,1809
182.045000,1788
182.045500,1790
182.046000,1802
182.046500,1808
182.047000,1796
182.047500,1794
182.048000,1812
182.048500,1803
182.049000,1798
182.049500,1813
182.050000,1824
182.050500,1804
182.051000,1816
182.051500,1818
182.052000,1802
182.052500,1794
182.053000,1810
182.053500,1803
182.054000,1799
182.054500,1813
182.055000,1816
182.055500,1798
182.056000,1812
182.056500,1815
182.057000,1799
182.057500,1797
182.058000,1813
182.058500,1804
182.059000,1799
182.059500,1808
182.060000,1814
182.060500,1795
182.061000,1810
182.061500,1814
182.062000,1802
182.062500,1798
182.063000,1812
182.063500,1804
182.064000,1799
182.064500,1813
182.065000,1820
182.065500,1802
182.066000,1813
182.066500,1815
182.067000,1802
182.067500,1800
182.068000,1819
182.068500,1812
182.069000,1808
182.069500,1817
182.070000,1826
182.070500,1810
182.071000,1818
182.071500,1825
182.072000,1813
182.072500,1805
182.073000,1823
182.073500,1814
182.074000,1808
182.074500,1820
182.075000,1831
182.075500,1810
182.076000,1816
182.076500,1815
182.077000,1800
182.077500,1794
182.078000,1802
182.078500,1793
182.079000,1787
182.079500,1802
182.080000,1808
182.080500,1791
182.081000,1797
182.081500,1803
182.082000,1793
182.082500,1789
182.083000,1806
182.083500,1797
182.084000,1790
182.084500,1800
182.085000,1809
182.085500,1788
182.086000,1798
182.086500,1804
182.087000,1796
182.087500,1792
182.088000,1807
182.088500,1796
182.089000,1792
182.089500,1806
182.090000,1815
182.090500,1797
182.091000,1804
182.091500,1811
182.092000,1797
182.092500,1795
182.093000,1812
182.093500,1803
182.094000,1795
182.094500,1806
182.095000,1811
182.095500,1799
182.096000,1814
182.096500,1813
182.097000,1798
182.097500,1794
182.098000,1811
182.098500,1805
182.099000,1801
182.099500,1816
182.100000,1820
182.100500,1804
182.101000,1815
182.101500,1818
182.102000,1805
182.102500,1798
182.103000,1815
182.103500,1803
182.104000,1793
182.104500,1806
182.105000,1820
182.105500,1807
182.106000,1815
182.106500,1820
182.107000,1809
182.107500,1804
182.108000,1819
182.108500,1812
182.109000,1805
182.109500,1815
182.110000,1826
182.110500,1809
182.111000,1815
182.111500,1818
182.112000,1804
182.112500,1796
182.113000,1811
182.113500,1803
182.114000,1795
182.114500,1804
182.115000,1809
182.115500,1791
182.116000,1804
182.116500,1809
182.117000,1798
182.117500,1792
182.118000,1806
182.118500,1800
182.119000,1791
182.119500,1803
182.120000,1814
182.120500,1797
182.121000,1808
182.121500,1811
182.122000,1799
182.122500,1796
182.123000,1812
182.123500,1807
182.124000,1799
182.124500,1811
182.125000,1821
182.125500,1803
182.126000,1807
182.126500,1813
182.127000,1803
182.127500,1797
182.128000,1813
182.128500,1806
182.129000,1799
182.129500,1811
182.130000,1822
182.130500,1804
182.131000,1807
182.131500,1814
182.132000,1803
182.132500,1798
182.133000,1811
182.133500,1806
182.134000,1797
182.134500,1811
182.135000,1820
182.135500,1803
182.136000,1804
182.136500,1814
182.137000,1800
182.137500,1796
182.138000,1813
182.138500,1805
182.139000,1800
182.139500,1809
182.140000,1818
182.140500,1805
182.141000,1805
182.141500,1817
182.142000,1807
182.142500,1805
182.143000,1820
182.143500,1814
182.144000,1806
182.144500,1816
182.145000,1824
182.145500,1805
182.146000,1806
182.146500,1817
182.147000,1805
182.147500,1802
182.148000,1815
182.148500,1811
182.149000,1798
182.149500,1807
182.150000,1814
182.150500,1794
182.151000,1806
182.151500,1806
182.152000,1797
182.152500,1794
182.153000,1809
182.153500,1800
182.154000,1795
182.154500,1810
182.155000,1819
182.155500,1809
182.156000,1824
182.156500,1822
182.157000,1810
182.157500,1808
182.158000,1822
182.158500,1810
182.159000,1811
182.159500,1820
182.160000,1833
182.160500,1814
182.161000,1835
182.161500,1822
182.162000,1808
182.162500,1802
182.163000,1813
182.163500,1799
182.164000,1790
182.164500,1798
182.165000,1804
182.165500,1788
182.166000,1801
182.166500,1800
182.167000,1790
182.167500,1786
182.168000,1801
182.168500,1791
182.169000,1786
182.169500,1802
182.170000,1806
182.170500,1792
182.171000,1789
182.171500,1803
182.172000,1795
182.172500,1791
182.173000,1809
182.173500,1806
182.174000,1797
182.174500,1811
182.175000,1819
182.175500,1811
182.176000,1808
182.176500,1823
182.177000,1812
182.177500,1803
182.178000,1819
182.178500,1816
182.179000,1801
182.179500,1814
182.180000,1818
182.180500,1804
182.181000,1800
182.181500,1814
182.182000,1803
182.182500,1794
182.183000,1805
182.183500,1809
182.184000,1786
182.184500,1799
182.185000,1805
182.185500,1794
182.186000,1789
182.186500,1807
182.187000,1800
182.187500,1795
182.188000,1809
182.188500,1816
182.189000,1803
182.189500,1811
182.190000,1815
182.190500,1806
182.191000,1802
182.191500,1815
182.192000,1806
182.192500,1799
182.193000,1811
182.193500,1817
182.194000,1805
182.194500,1814
182.195000,1817
182.195500,1807
182.196000,1805
182.196500,1819
182.197000,1809
182.197500,1800
182.198000,1812
182.198500,1818
182.199000,1806
182.199500,1807
182.200000,1818
182.200500,1806
182.201000,1798
182.201500,1811
182.202000,1799
182.202500,1792
182.203000,1801
182.203500,1805
182.204000,1789
182.204500,1814
182.205000,1808
182.205500,1796
182.206000,1793
182.206500,1806
182.207000,1791
182.207500,1794
182.208000,1806
182.208500,1812
182.209000,1798
182.209500,1794
182.210000,1812
182.210500,1805
182.211000,1800
182.211500,1811
182.212000,1818
182.212500,1798
182.213000,1811
182.213500,1816
182.214000,1801
182.214500,1797
182.215000,1815
182.215500,1809
182.216000,1801
182.216500,1816
182.217000,1820
182.217500,1807
182.218000,1809
182.218500,1818
182.219000,1807
182.219500,1803
182.220000,1824
182.220500,1814
182.221000,1809
182.221500,1820
182.222000,1824
182.222500,1806
182.223000,1816
182.223500,1818
182.224000,1807
182.224500,1800
182.225000,1819
182.225500,1810
182.226000,1801
182.226500,1813
182.227000,1816
182.227500,1802
182.228000,1808
182.228500,1815
182.229000,1802
182.229500,1795
182.230000,1807
182.230500,1798
182.231000,1791
182.231500,1806
182.232000,1814
182.232500,1804
182.233000,1810
182.233500,1822
182.234000,1810
182.234500,1800
182.235000,1816
182.235500,1807
182.236000,1801
182.236500,1808
182.237000,1810
182.237500,1797
182.238000,1804
182.238500,1810
182.239000,1800
182.239500,1794
182.240000,1806
182.240500,1798
182.241000,1785
182.241500,1790
182.242000,1797
182.242500,1788
182.243000,1808
182.243500,1809
182.244000,1798
182.244500,1795
182.245000,1812
182.245500,1809
182.246000,1807
182.246500,1813
182.247000,1816
182.247500,1802
182.248000,1814
182.248500,1814
182.249000,1805
182.249500,1798
182.250000,1813
182.250500,1801
182.251000,1802
182.251500,1814
182.252000,1817
182.252500,1802
182.253000,1801
182.253500,1810
182.254000,1797
182.254500,1791
182.255000,1809
182.255500,1795
182.256000,1797
182.256500,1806
182.257000,1814
182.257500,1801
182.258000,1795
182.258500,1811
182.259000,1802
182.259500,1795
182.260000,1811
182.260500,1800
182.261000,1799
182.261500,1806
182.262000,1817
182.262500,1805
182.263000,1800
182.263500,1822
182.264000,1812
182.264500,1807
182.265000,1821
182.265500,1806
182.266000,1809
182.266500,1815
182.267000,1821
182.267500,1807
182.268000,1800
182.268500,1816
182.269000,1803
182.269500,1796
182.270000,1811
182.270500,1812
182.271000,1797
182.271500,1804
182.272000,1810
182.272500,1798
182.273000,1800
182.273500,1817
182.274000,1806
182.274500,1799
182.275000,1812
182.275500,1818
182.276000,1799
182.276500,1805
182.277000,1810
182.277500,1796
182.278000,1789
182.278500,1808
182.279000,1800
182.279500,1795
182.280000,1810
182.280500,1818
182.281000,1801
182.281500,1810
182.282000,1816
182.282500,1804
182.283000,1799
182.283500,1819
182.284000,1810
182.284500,1810
182.285000,1824
182.285500,1826
182.286000,1804
182.286500,1810
182.287000,1815
182.287500,1801
182.288000,1796
182.288500,1816
182.289000,1804
182.289500,1795
182.290000,1812
182.290500,1794
182.291000,1794
182.291500,1800
182.292000,1806
182.292500,1794
182.293000,1806
182.293500,1807
182.294000,1799
182.294500,1793
182.295000,1811
182.295500,1798
182.296000,1798
182.296500,1806
182.297000,1809
182.297500,1796
182.298000,1799
182.298500,1805
182.299000,1796
182.299500,1791
182.300000,1807
182.300500,1803
182.301000,1794
182.301500,1808
182.302000,1812
182.302500,1801
182.303000,1799
182.303500,1816
182.304000,1806
182.304500,1803
182.305000,1818
182.305500,1821
182.306000,1802
182.306500,1810
182.307000,1818
182.307500,1801
182.308000,1794
182.308500,1809
182.309000,1802
182.309500,1799
182.310000,1815
182.310500,1821
182.311000,1806
182.311500,1824
182.312000,1833
182.312500,1823
182.313000,1815
182.313500,1828
182.314000,1814
182.314500,1805
182.315000,1816
182.315500,1819
182.316000,1803
182.316500,1805
182.317000,1807
182.317500,1790
182.318000,1786
182.318500,1802
182.319000,1794
182.319500,1784
182.320000,1795
182.320500,1806
182.321000,1790
182.321500,1798
182.322000,1806
182.322500,1795
182.323000,1791
182.323500,1808
182.324000,1801
182.324500,1794
182.325000,1814
182.325500,1815
182.326000,1802
182.326500,1805
182.327000,1812
182.327500,1797
182.328000,1793
182.328500,1813
182.329000,1807
182.329500,1802
182.330000,1820
182.330500,1823
182.331000,1811
182.331500,1817
182.332000,1822
182.332500,1810
182.333000,1800
182.333500,1815
182.334000,1806
182.334500,1801
182.335000,1820
182.335500,1820
182.336000,1803
182.336500,1810
182.337000,1816
182.337500,1804
182.338000,1802
182.338500,1813
182.339000,1803
182.339500,1798
182.340000,1810
182.340500,1814
182.341000,1793
182.341500,1803
182.342000,1808
182.342500,1792
182.343000,1789
182.343500,1808
182.344000,1798
182.344500,1798
182.345000,1809
182.345500,1819
182.346000,1802
182.346500,1811
182.347000,1818
182.347500,1801
182.348000,1798
182.348500,1816
182.349000,1810
182.349500,1810
182.350000,1822
182.350500,1830
182.351000,1811
182.351500,1823
182.352000,1829
182.352500,1816
182.353000,1814
182.353500,1824
182.354000,1811
182.354500,1805
182.355000,1821
182.355500,1809
182.356000,1799
182.356500,1804
182.357000,1810
182.357500,1798
182.358000,1815
182.358500,1823
182.359000,1815
182.359500,1809
182.360000,1830
182.360500,1820
182.361000,1810
182.361500,1819
182.362000,1823
182.362500,1802
182.363000,1811
182.363500,1808
182.364000,1791
182.364500,1782
182.365000,1793
182.365500,1780
182.366000,1769
182.366500,1779
182.367000,1789
182.367500,1778
182.368000,1789
182.368500,1797
182.369000,1790
182.369500,1787
182.370000,1803
182.370500,1805
182.371000,1798
182.371500,1808
182.372000,1814
182.372500,1803
182.373000,1800
182.373500,1811
182.374000,1796
182.374500,1788
182.375000,1806
182.375500,1808
182.376000,1802
182.376500,1810
182.377000,1818
182.377500,1803
182.378000,1806
182.378500,1822
182.379000,1809
182.379500,1806
182.380000,1817
182.380500,1813
182.381000,1808
182.381500,1815
182.382000,1816
182.382500,1803
182.383000,1811
182.383500,1814
182.384000,1806
182.384500,1801
182.385000,1815
182.385500,1806
182.386000,1796
182.386500,1803
182.387000,1813
182.387500,1797
182.388000,1803
182.388500,1815
182.389000,1802
182.389500,1799
182.390000,1814
182.390500,1808
182.391000,1798
182.391500,1804
182.392000,1809
182.392500,1796
182.393000,1796
182.393500,1813
182.394000,1804
182.394500,1797
182.395000,1817
182.395500,1809
182.396000,1801
182.396500,1811
182.397000,1817
182.397500,1799
182.398000,1816
182.398500,1810
182.399000,1803
182.399500,1799
182.400000,1817
182.400500,1808
182.401000,1805
182.401500,1812
182.402000,1818
182.402500,1806
182.403000,1824
182.403500,1819
182.404000,1812
182.404500,1808
182.405000,1826
182.405500,1815
182.406000,1809
182.406500,1818
182.407000,1822
182.407500,1804
182.408000,1822
182.408500,1817
182.409000,1804
182.409500,1796
182.410000,1813
182.410500,1797
182.411000,1794
182.411500,1801
182.412000,1803
182.412500,1793
182.413000,1808
182.413500,1812
182.414000,1805
182.414500,1803
182.415000,1818
182.415500,1801
182.416000,1799
182.416500,1806
182.417000,1813
182.417500,1802
182.418000,1816
182.418500,1814
182.419000,1799
182.419500,1794
182.420000,1813
182.420500,1793
182.421000,1793
182.421500,1796
182.422000,1801
182.422500,1789
182.423000,1789
182.423500,1806
182.424000,1797
182.424500,1793
182.425000,1812
182.425500,1814
182.426000,1795
182.426500,1806
182.427000,1813
182.427500,1801
182.428000,1795
182.428500,1814
182.429000,1806
182.429500,1802
182.430000,1819
182.430500,1826
182.431000,1806
182.431500,1819
182.432000,1823
182.432500,1813
182.433000,1812
182.433500,1829
182.434000,1819
182.434500,1816
182.435000,1831
182.435500,1832
182.436000,1809
182.436500,1820
182.437000,1820
182.437500,1805
182.438000,1799
182.438500,1812
182.439000,1798
182.439500,1788
182.440000,1798
182.440500,1804
182.441000,1788
182.441500,1788
182.442000,1800
182.442500,1791
182.443000,1787
182.443500,1804
182.444000,1798
182.444500,1794
182.445000,1807
182.445500,1815
182.446000,1796
182.446500,1803
182.447000,1809
182.447500,1796
182.448000,1787
182.448500,1806
182.449000,1800
182.449500,1794
182.450000,1815
182.450500,1820
182.451000,1804
182.451500,1814
182.452000,1816
182.452500,1804
182.453000,1798
182.453500,1813
182.454000,1804
182.454500,1797
182.455000,1808
182.455500,1816
182.456000,1803
182.456500,1812
182.457000,1816
182.457500,1805
182.458000,1800
182.458500,1817
182.459000,1812
182.459500,1806
182.460000,1826
182.460500,1827
182.461000,1810
182.461500,1817
182.462000,1822
182.462500,1811
182.463000,1803
182.463500,1815
182.464000,1806
182.464500,1801
182.465000,1817
182.465500,1823
182.466000,1805
182.466500,1812
182.467000,1812
182.467500,1795
182.468000,1790
182.468500,1805
182.469000,1799
182.469500,1793
182.470000,1804
182.470500,1811
182.471000,1795
182.471500,1807
182.472000,1806
182.472500,1799
182.473000,1792
182.473500,1809
182.474000,1801
182.474500,1797
182.475000,1810
182.475500,1818
182.476000,1805
182.476500,1813
182.477000,1820
182.477500,1809
182.478000,1807
182.478500,1818
182.479000,1811
182.479500,1805
182.480000,1817
182.480500,1824
182.481000,1809
182.481500,1820
182.482000,1821
182.482500,1808
182.483000,1797
182.483500,1810
182.484000,1798
182.484500,1789
182.485000,1805
182.485500,1808
182.486000,1795
182.486500,1793
182.487000,1806
182.487500,1796
182.488000,1794
182.488500,1809
182.489000,1803
182.489500,1797
182.490000,1812
182.490500,1813
182.491000,1799
182.491500,1821
182.492000,1814
182.492500,1805
182.493000,1804
182.493500,1817
182.494000,1809
182.494500,1802
182.495000,1819
182.495500,1824
182.496000,1810
182.496500,1832
182.497000,1826
182.497500,1821
182.498000,1819
182.498500,1833
182.499000,1821
182.499500,1811
182.500000,1821
182.500500,1824
182.501000,1814
182.501500,1823
182.502000,1815
182.502500,1797
182.503000,1782
182.503500,1787
182.504000,1782
182.504500,1769
182.505000,1780
182.505500,1786
182.506000,1776
182.506500,1773
182.507000,1790
182.507500,1787
182.508000,1786
182.508500,1800
182.509000,1808
182.509500,1791
182.510000,1805
182.510500,1813
182.511000,1800
182.511500,1794
182.512000,1812
182.512500,1802
182.513000,1798
182.513500,1811
182.514000,1816
182.514500,1802
182.515000,1807
182.515500,1817
182.516000,1804
182.516500,1797
182.517000,1812
182.517500,1807
182.518000,1800
182.518500,1813
182.519000,1819
182.519500,1803
182.520000,1815
182.520500,1822
182.521000,1812
182.521500,1805
182.522000,1821
182.522500,1812
182.523000,1802
182.523500,1817
182.524000,1820
182.524500,1806
182.525000,1810
182.525500,1821
182.526000,1810
182.526500,1801
182.527000,1813
182.527500,1811
182.528000,1809
182.528500,1825
182.529000,1830
182.529500,1815
182.530000,1829
182.530500,1822
182.531000,1807
182.531500,1802
182.532000,1817
182.532500,1814
182.533000,1806
182.533500,1818
182.534000,1821
182.534500,1801
182.535000,1818
182.535500,1804
182.536000,1789
182.536500,1781
182.537000,1798
182.537500,1787
182.538000,1784
182.538500,1798
182.539000,1802
182.539500,1790
182.540000,1810
182.540500,1805
182.541000,1799
182.541500,1796
182.542000,1808
182.542500,1796
182.543000,1795
182.543500,1803
182.544000,1809
182.544500,1798
182.545000,1796
182.545500,1817
182.546000,1809
182.546500,1804
182.547000,1819
182.547500,1826
182.548000,1807
182.548500,1826
182.549000,1832
182.549500,1822
182.550000,1820
182.550500,1840
182.551000,1832
182.551500,1822
182.552000,1830
182.552500,1826
182.553000,1800
182.553500,1810
182.554000,1816
182.554500,1801
182.555000,1796
182.555500,1804
182.556000,1790
182.556500,1774
182.557000,1787
182.557500,1793
182.558000,1776
182.558500,1790
182.559000,1794
182.559500,1784
182.560000,1781
182.560500,1800
182.561000,1798
182.561500,1790
182.562000,1806
182.562500,1816
182.563000,1802
182.563500,1811
182.564000,1818
182.564500,1806
182.565000,1804
182.565500,1819
182.566000,1810
182.566500,1802
182.567000,1812
182.567500,1814
182.568000,1802
182.568500,1802
182.569000,1814
182.569500,1799
182.570000,1793
182.570500,1809
182.571000,1803
182.571500,1796
182.572000,1810
182.572500,1812
182.573000,1801
182.573500,1823
182.574000,1814
182.574500,1802
182.575000,1796
182.575500,1808
182.576000,1800
182.576500,1793
182.577000,1810
182.577500,1815
182.578000,1801
182.578500,1825
182.579000,1814
182.579500,1803
182.580000,1795
182.580500,1810
182.581000,1800
182.581500,1795
182.582000,1810
182.582500,1815
182.583000,1802
182.583500,1817
182.584000,1811
182.584500,1800
182.585000,1795
182.585500,1811
182.586000,1797
182.586500,1798
182.587000,1812
182.587500,1817
182.588000,1803
182.588500,1801
182.589000,1820
182.589500,1816
182.590000,1812
182.590500,1823
182.591000,1825
182.591500,1805
182.592000,1818
182.592500,1822
182.593000,1806
182.593500,1801
182.594000,1814
182.594500,1803
182.595000,1800
182.595500,1808
182.596000,1810
182.596500,1790
182.597000,1796
182.597500,1803
182.598000,1791
182.598500,1789
182.599000,1804
182.599500,1799
182.600000,1796
182.600500,1815
182.601000,1827
182.601500,1810
182.602000,1823
182.602500,1831
182.603000,1821
182.603500,1817
182.604000,1834
182.604500,1830
182.605000,1827
182.605500,1838
182.606000,1842
182.606500,1825
182.607000,1819
182.607500,1824
182.608000,1799
182.608500,1792
182.609000,1801
182.609500,1794
182.610000,1783
182.610500,1793
182.611000,1796
182.611500,1778
182.612000,1786
182.612500,1794
182.613000,1785
182.613500,1778
182.614000,1792
182.614500,1783
182.615000,1785
182.615500,1795
182.616000,1803
182.616500,1790
182.617000,1811
182.617500,1810
182.618000,1798
182.618500,1792
182.619000,1808
182.619500,1791
182.620000,1797
182.620500,1809
182.621000,1814
182.621500,1802
182.622000,1797
182.622500,1818
182.623000,1808
182.623500,1807
182.624000,1822
182.624500,1827
182.625000,1812
182.625500,1830
182.626000,1833
182.626500,1816
182.627000,1809
182.627500,1826
182.628000,1813
182.628500,1806
182.629000,1819
182.629500,1825
182.630000,1809
182.630500,1818
182.631000,1821
182.631500,1806
182.632000,1800
182.632500,1813
182.633000,1801
182.633500,1793
182.634000,1808
182.634500,1814
182.635000,1801
182.635500,1816
182.636000,1816
182.636500,1801
182.637000,1790
182.637500,1801
182.638000,1785
182.638500,1782
182.639000,1804
182.639500,1808
182.640000,1803
182.640500,1818
182.641000,1828
182.641500,1812
182.642000,1802
182.642500,1817
182.643000,1804
182.643500,1800
182.644000,1813
182.644500,1810
182.645000,1795
182.645500,1807
182.646000,1811
182.646500,1789
182.647000,1782
182.647500,1802
182.648000,1788
182.648500,1783
182.649000,1795
182.649500,1799
182.650000,1783
182.650500,1802
182.651000,1810
182.651500,1793
182.652000,1790
182.652500,1807
182.653000,1798
182.653500,1794
182.654000,1811
182.654500,1814
182.655000,1796
182.655500,1805
182.656000,1809
182.656500,1792
182.657000,1789
182.657500,1804
182.658000,1797
182.658500,1791
182.659000,1803
182.659500,1809
182.660000,1794
182.660500,1808
182.661000,1815
182.661500,1802
182.662000,1798
182.662500,1814
182.663000,1805
182.663500,1798
182.664000,1814
182.664500,1818
182.665000,1803
182.665500,1811
182.666000,1816
182.666500,1803
182.667000,1798
182.667500,1811
182.668000,1806
182.668500,1799
182.669000,1812
182.669500,1817
182.670000,1803
182.670500,1815
182.671000,1816
182.671500,1805
182.672000,1799
182.672500,1815
182.673000,1814
182.673500,1805
182.674000,1818
182.674500,1824
182.675000,1808
182.675500,1821
182.676000,1826
182.676500,1810
182.677000,1805
182.677500,1822
182.678000,1819
182.678500,1813
182.679000,1822
182.679500,1826
182.680000,1811
182.680500,1818
182.681000,1818
182.681500,1803
182.682000,1798
182.682500,1812
182.683000,1802
182.683500,1800
182.684000,1809
182.684500,1811
182.685000,1790
182.685500,1792
182.686000,1794
182.686500,1782
182.687000,1781
182.687500,1799
182.688000,1793
182.688500,1787
182.689000,1807
182.689500,1813
182.690000,1797
182.690500,1810
182.691000,1820
182.691500,1806
182.692000,1800
182.692500,1818
182.693000,1810
182.693500,1801
182.694000,1813
182.694500,1818
182.695000,1805
182.695500,1809
182.696000,1818
182.696500,1805
182.697000,1803
182.697500,1820
182.698000,1813
182.698500,1809
182.699000,1822
182.699500,1826
182.700000,1812
182.700500,1815
182.701000,1824
182.701500,1812
182.702000,1803
182.702500,1810
182.703000,1798
182.703500,1786
182.704000,1798
182.704500,1802
182.705000,1782
182.705500,1792
182.706000,1794
182.706500,1779
182.707000,1779
182.707500,1796
182.708000,1794
182.708500,1789
182.709000,1805
182.709500,1813
182.710000,1803
182.710500,1819
182.711000,1823
182.711500,1808
182.712000,1803
182.712500,1821
182.713000,1814
182.713500,1808
182.714000,1820
182.714500,1826
182.715000,1804
182.715500,1814
182.716000,1815
182.716500,1800
182.717000,1794
182.717500,1808
182.718000,1802
182.718500,1794
182.719000,1805
182.719500,1809
182.720000,1787
182.720500,1800
182.721000,1809
182.721500,1797
182.722000,1796
182.722500,1813
182.723000,1805
182.723500,1803
182.724000,1824
182.724500,1839
182.725000,1832
182.725500,1840
182.726000,1847
182.726500,1832
182.727000,1825
182.727500,1837
182.728000,1820
182.728500,1813
182.729000,1822
182.729500,1820
182.730000,1795
182.730500,1795
182.731000,1792
182.731500,1765
182.732000,1756
182.732500,1778
182.733000,1774
182.733500,1777
182.734000,1797
182.734500,1805
182.735000,1790
182.735500,1808
182.736000,1815
182.736500,1801
182.737000,1796
182.737500,1812
182.738000,1805
182.738500,1799
182.739000,1813
182.739500,1814
182.740000,1792
182.740500,1803
182.741000,1807
182.741500,1788
182.742000,1785
182.742500,1800
182.743000,1792
182.743500,1789
182.744000,1804
182.744500,1812
182.745000,1799
182.745500,1808
182.746000,1815
182.746500,1801
182.747000,1797
182.747500,1815
182.748000,1807
182.748500,1802
182.749000,1818
182.749500,1823
182.750000,1810
182.750500,1807
182.751000,1820
182.751500,1811
182.752000,1816
182.752500,1843
182.753000,1841
182.753500,1833
182.754000,1844
182.754500,1843
182.755000,1825
182.755500,1832
182.756000,1826
182.756500,1810
182.757000,1800
182.757500,1810
182.758000,1790
182.758500,1780
182.759000,1786
182.759500,1786
182.760000,1780
182.760500,1776
182.761000,1795
182.761500,1781
182.762000,1777
182.762500,1794
182.763000,1786
182.763500,1784
182.764000,1798
182.764500,1806
182.765000,1796
182.765500,1789
182.766000,1808
182.766500,1801
182.767000,1795
182.767500,1813
182.768000,1817
182.768500,1800
182.769000,1818
182.769500,1827
182.770000,1823
182.770500,1823
182.771000,1842
182.771500,1833
182.772000,1827
182.772500,1846
182.773000,1852
182.773500,1840
182.774000,1846
182.774500,1846
182.775000,1826
182.775500,1812
182.776000,1821
182.776500,1801
182.777000,1789
182.777500,1795
182.778000,1798
182.778500,1782
182.779000,1787
182.779500,1785
182.780000,1771
182.780500,1762
182.781000,1775
182.781500,1769
182.782000,1770
182.782500,1784
182.783000,1792
182.783500,1783
182.784000,1804
182.784500,1822
182.785000,1825
182.785500,1823
182.786000,1841
182.786500,1832
182.787000,1830
182.787500,1843
182.788000,1848
182.788500,1829
182.789000,1836
182.789500,1835
182.790000,1821
182.790500,1812
182.791000,1818
182.791500,1804
182.792000,1795
182.792500,1805
182.793000,1815
182.793500,1806
182.794000,1807
182.794500,1822
182.795000,1804
182.795500,1794
182.796000,1809
182.796500,1796
182.797000,1787
182.797500,1794
182.798000,1798
182.798500,1778
182.799000,1778
182.799500,1787
182.800000,1774
182.800500,1764
182.801000,1778
182.801500,1768
182.802000,1773
182.802500,1790
182.803000,1797
182.803500,1782
182.804000,1808
182.804500,1803
182.805000,1794
182.805500,1790
182.806000,1809
182.806500,1802
182.807000,1805
182.807500,1818
182.808000,1819
182.808500,1806
182.809000,1819
182.809500,1814
182.810000,1805
182.810500,1800
182.811000,1812
182.811500,1801
182.812000,1793
182.812500,1802
182.813000,1803
182.813500,1786
182.814000,1785
182.814500,1802
182.815000,1798
182.815500,1795
182.816000,1809
182.816500,1810
182.817000,1800
182.817500,1812
182.818000,1820
182.818500,1809
182.819000,1811
182.819500,1830
182.820000,1827
182.820500,1833
182.821000,1852
182.821500,1865
182.822000,1846
182.822500,1857
182.823000,1859
182.823500,1842
182.824000,1826
182.824500,1836
182.825000,1820
182.825500,1802
182.826000,1808
182.826500,1797
182.827000,1767
182.827500,1776
182.828000,1782
182.828500,1766
182.829000,1757
182.829500,1769
182.830000,1763
182.830500,1760
182.831000,1777
182.831500,1786
182.832000,1772
182.832500,1790
182.833000,1799
182.833500,1790
182.834000,1787
182.834500,1806
182.835000,1800
182.835500,1797
182.836000,1811
182.836500,1817
182.837000,1797
182.837500,1811
182.838000,1818
182.838500,1806
182.839000,1800
182.839500,1821
182.840000,1818
182.840500,1815
182.841000,1829
182.841500,1834
182.842000,1815
182.842500,1833
182.843000,1838
182.843500,1828
182.844000,1827
182.844500,1848
182.845000,1839
182.845500,1834
182.846000,1842
182.846500,1836
182.847000,1809
182.847500,1814
182.848000,1808
182.848500,1789
182.849000,1776
182.849500,1789
182.850000,1779
182.850500,1770
182.851000,1782
182.851500,1780
182.852000,1764
182.852500,1781
182.853000,1789
182.853500,1785
182.854000,1787
182.854500,1802
182.855000,1797
182.855500,1795
182.856000,1809
182.856500,1813
182.857000,1802
182.857500,1814
182.858000,1819
182.858500,1801
182.859000,1793
182.859500,1809
182.860000,1800
182.860500,1794
182.861000,1805
182.861500,1809
182.862000,1799
182.862500,1808
182.863000,1819
182.863500,1807
182.864000,1802
182.864500,1819
182.865000,1814
182.865500,1809
182.866000,1820
182.866500,1825
182.867000,1807
182.867500,1814
182.868000,1815
182.868500,1799
182.869000,1786
182.869500,1805
182.870000,1802
182.870500,1802
182.871000,1818
182.871500,1819
182.872000,1802
182.872500,1809
182.873000,1811
182.873500,1799
182.874000,1796
182.874500,1815
182.875000,1812
182.875500,1807
182.876000,1818
182.876500,1818
182.877000,1804
182.877500,1811
182.878000,1819
182.878500,1812
182.879000,1808
182.879500,1823
182.880000,1820
182.880500,1809
182.881000,1820
182.881500,1828
182.882000,1815
182.882500,1825
182.883000,1839
182.883500,1833
182.884000,1823
182.884500,1834
182.885000,1824
182.885500,1816
182.886000,1829
182.886500,1827
182.887000,1803
182.887500,1803
182.888000,1793
182.888500,1771
182.889000,1762
182.889500,1774
182.890000,1770
182.890500,1762
182.891000,1776
182.891500,1780
182.892000,1768
182.892500,1774
182.893000,1794
182.893500,1787
182.894000,1782
182.894500,1800
182.895000,1798
182.895500,1794
182.896000,1809
182.896500,1812
182.897000,1800
182.897500,1823
182.898000,1814
182.898500,1807
182.899000,1802
182.899500,1814
182.900000,1810
182.900500,1809
182.901000,1821
182.901500,1828
182.902000,1816
182.902500,1825
182.903000,1824
182.903500,1813
182.904000,1809
182.904500,1824
182.905000,1824
182.905500,1823
182.906000,1838
182.906500,1844
182.907000,1827
182.907500,1816
182.908000,1825
182.908500,1812
182.909000,1809
182.909500,1820
182.910000,1821
182.910500,1793
182.911000,1797
182.911500,1791
182.912000,1767
182.912500,1763
182.913000,1782
182.913500,1775
182.914000,1774
182.914500,1789
182.915000,1798
182.915500,1779
182.916000,1791
182.916500,1798
182.917000,1788
182.917500,1790
182.918000,1808
182.918500,1801
182.919000,1797
182.919500,1811
182.920000,1818
182.920500,1806
182.921000,1815
182.921500,1824
182.922000,1809
182.922500,1805
182.923000,1817
182.923500,1806
182.924000,1799
182.924500,1812
182.925000,1821
182.925500,1802
182.926000,1815
182.926500,1817
182.927000,1803
182.927500,1796
182.928000,1811
182.928500,1806
182.929000,1801
182.929500,1819
182.930000,1836
182.930500,1825
182.931000,1839
182.931500,1833
182.932000,1822
182.932500,1817
182.933000,1830
182.933500,1819
182.934000,1811
182.934500,1817
182.935000,1823
182.935500,1804
182.936000,1796
182.936500,1800
182.937000,1785
182.937500,1781
182.938000,1793
182.938500,1793
182.939000,1779
182.939500,1790
182.940000,1797
182.940500,1784
182.941000,1781
182.941500,1796
182.942000,1792
182.942500,1788
182.943000,1804
182.943500,1811
182.944000,1795
182.944500,1807
182.945000,1815
182.945500,1801
182.946000,1798
182.946500,1812
182.947000,1804
182.947500,1798
182.948000,1811
182.948500,1815
182.949000,1801
182.949500,1809
182.950000,1818
182.950500,1807
182.951000,1801
182.951500,1813
182.952000,1804
182.952500,1800
182.953000,1812
182.953500,1820
182.954000,1805
182.954500,1816
182.955000,1823
182.955500,1810
182.956000,1808
182.956500,1820
182.957000,1811
182.957500,1804
182.958000,1813
182.958500,1821
182.959000,1801
182.959500,1802
182.960000,1815
182.960500,1806
182.961000,1799
182.961500,1812
182.962000,1802
182.962500,1795
182.963000,1807
182.963500,1815
182.964000,1802
182.964500,1811
182.965000,1815
182.965500,1803
182.966000,1800
182.966500,1813
182.967000,1814
182.967500,1796
182.968000,1806
182.968500,1813
182.969000,1803
182.969500,1798
182.970000,1820
182.970500,1807
182.971000,1800
182.971500,1810
182.972000,1815
182.972500,1795
182.973000,1809
182.973500,1818
182.974000,1805
182.974500,1800
182.975000,1814
182.975500,1809
182.976000,1799
182.976500,1809
182.977000,1815
182.977500,1802
182.978000,1810
182.978500,1813
182.979000,1799
182.979500,1793
182.980000,1804
182.980500,1800
182.981000,1798
182.981500,1815
182.982000,1824
182.982500,1811
182.983000,1821
182.983500,1825
182.984000,1810
182.984500,1805
182.985000,1816
182.985500,1809
182.986000,1801
182.986500,1806
182.987000,1811
182.987500,1790
182.988000,1786
182.988500,1802
182.989000,1794
182.989500,1788
182.990000,1803
182.990500,1799
182.991000,1789
182.991500,1801
182.992000,1808
182.992500,1794
182.993000,1811
182.993500,1809
182.994000,1797
182.994500,1792
182.995000,1809
182.995500,1803
182.996000,1795
182.996500,1804
182.997000,1810
182.997500,1797
182.998000,1811
182.998500,1811
182.999000,1803
182.999500,1798
183.000000,1822
183.000500,1803
183.001000,1804
183.001500,1810
183.002000,1816
183.002500,1803
183.003000,1795
183.003500,1813
183.004000,1806
183.004500,1801
183.005000,1822
183.005500,1827
183.006000,1811
183.006500,1824
183.007000,1830
183.007500,1819
183.008000,1812
183.008500,1828
183.009000,1817
183.009500,1810
183.010000,1821
183.010500,1821
183.011000,1801
183.011500,1809
183.012000,1809
183.012500,1797
183.013000,1791
183.013500,1804
183.014000,1799
183.014500,1791
183.015000,1803
183.015500,1811
183.016000,1794
183.016500,1811
183.017000,1807
183.017500,1799
183.018000,1794
183.018500,1807
183.019000,1792
183.019500,1793
183.020000,1801
183.020500,1808
183.021000,1799
183.021500,1796
183.022000,1823
183.022500,1818
183.023000,1815
183.023500,1828
183.024000,1830
183.024500,1810
183.025000,1814
183.025500,1819
183.026000,1804
183.026500,1794
183.027000,1804
183.027500,1789
183.028000,1780
183.028500,1791
183.029000,1793
183.029500,1776
183.030000,1794
183.030500,1801
183.031000,1797
183.031500,1792
183.032000,1810
183.032500,1805
183.033000,1800
183.033500,1813
183.034000,1820
183.034500,1805
183.035000,1814
183.035500,1820
183.036000,1807
183.036500,1800
183.037000,1809
183.037500,1799
183.038000,1797
183.038500,1807
183.039000,1815
183.039500,1802
183.040000,1794
183.040500,1817
183.041000,1805
183.041500,1796
183.042000,1810
183.042500,1818
183.043000,1800
183.043500,1814
183.044000,1819
183.044500,1807
183.045000,1801
183.045500,1811
183.046000,1802
183.046500,1795
183.047000,1808
183.047500,1816
183.048000,1796
183.048500,1807
183.049000,1811
183.049500,1798
183.050000,1796
183.050500,1809
183.051000,1803
183.051500,1797
183.052000,1808
183.052500,1814
183.053000,1796
183.053500,1798
183.054000,1808
183.054500,1795
183.055000,1793
183.055500,1810
183.056000,1808
183.056500,1801
183.057000,1815
183.057500,1826
183.058000,1814
183.058500,1827
183.059000,1828
183.059500,1816
183.060000,1817
183.060500,1822
183.061000,1818
183.061500,1803
183.062000,1812
183.062500,1815
183.063000,1798
183.063500,1786
183.064000,1800
183.064500,1789
183.065000,1791
183.065500,1803
183.066000,1807
183.066500,1786
183.067000,1795
183.067500,1803
183.068000,1790
183.068500,1788
183.069000,1802
183.069500,1797
183.070000,1796
183.070500,1811
183.071000,1820
183.071500,1802
183.072000,1808
183.072500,1816
183.073000,1802
183.073500,1796
183.074000,1810
183.074500,1807
183.075000,1806
183.075500,1822
183.076000,1826
183.076500,1814
183.077000,1817
183.077500,1826
183.078000,1814
183.078500,1812
183.079000,1826
183.079500,1818
183.080000,1811
183.080500,1822
183.081000,1825
183.081500,1805
183.082000,1817
183.082500,1810
183.083000,1800
183.083500,1793
183.084000,1808
183.084500,1798
183.085000,1792
183.085500,1801
183.086000,1804
183.086500,1790
183.087000,1807
183.087500,1802
183.088000,1792
183.088500,1788
183.089000,1803
183.089500,1793
183.090000,1788
183.090500,1810
183.091000,1816
183.091500,1800
183.092000,1815
183.092500,1809
183.093000,1801
183.093500,1795
183.094000,1813
183.094500,1811
183.095000,1805
183.095500,1815
183.096000,1818
183.096500,1799
183.097000,1820
183.097500,1814
183.098000,1803
183.098500,1798
183.099000,1813
183.099500,1806
183.100000,1807
183.100500,1815
183.101000,1819
183.101500,1805
183.102000,1815
183.102500,1828
183.103000,1818
183.103500,1813
183.104000,1827
183.104500,1814
183.105000,1810
183.105500,1820
183.106000,1825
183.106500,1806
183.107000,1799
183.107500,1813
183.108000,1797
183.108500,1792
183.109000,1806
183.109500,1791
183.110000,1790
183.110500,1802
183.111000,1804
183.111500,1784
183.112000,1783
183.112500,1797
183.113000,1792
183.113500,1792
183.114000,1805
183.114500,1807
183.115000,1793
183.115500,1803
183.116000,1808
183.116500,1794
183.117000,1796
183.117500,1815
183.118000,1806
183.118500,1803
183.119000,1819
183.119500,1825
183.120000,1806
183.120500,1824
183.121000,1826
183.121500,1810
183.122000,1804
183.122500,1821
183.123000,1808
183.123500,1802
183.124000,1810
183.124500,1813
183.125000,1795
183.125500,1798
183.126000,1807
183.126500,1792
183.127000,1787
183.127500,1805
183.128000,1802
183.128500,1796
183.129000,1809
183.129500,1814
183.130000,1802
183.130500,1814
183.131000,1822
183.131500,1808
183.132000,1802
183.132500,1820
183.133000,1811
183.133500,1807
183.134000,1817
183.134500,1821
183.135000,1807
183.135500,1808
183.136000,1816
183.136500,1799
183.137000,1793
183.137500,1808
183.138000,1798
183.138500,1791
183.139000,1803
183.139500,1810
183.140000,1797
183.140500,1819
183.141000,1811
183.141500,1801
183.142000,1795
183.142500,1810
183.143000,1802
183.143500,1796
183.144000,1807
183.144500,1814
183.145000,1803
183.145500,1828
183.146000,1821
183.146500,1811
183.147000,1806
183.147500,1824
183.148000,1808
183.148500,1811
183.149000,1821
183.149500,1825
183.150000,1816
183.150500,1809
183.151000,1824
183.151500,1803
183.152000,1794
183.152500,1801
183.153000,1804
183.153500,1782
183.154000,1793
183.154500,1802
183.155000,1794
183.155500,1787
183.156000,1803
183.156500,1797
183.157000,1794
183.157500,1809
183.158000,1817
183.158500,1800
183.159000,1810
183.159500,1815
183.160000,1806
183.160500,1799
183.161000,1812
183.161500,1796
183.162000,1790
183.162500,1798
183.163000,1803
183.163500,1789
183.164000,1801
183.164500,1809
183.165000,1806
183.165500,1802
183.166000,1819
183.166500,1809
183.167000,1804
183.167500,1817
183.168000,1818
183.168500,1803
183.169000,1815
183.169500,1819
183.170000,1805
183.170500,1802
183.171000,1815
183.171500,1804
183.172000,1797
183.172500,1809
183.173000,1814
183.173500,1798
183.174000,1810
183.174500,1815
183.175000,1802
183.175500,1797
183.176000,1811
183.176500,1801
183.177000,1799
183.177500,1812
183.178000,1819
183.178500,1802
183.179000,1804
183.179500,1814
183.180000,1807
183.180500,1798
183.181000,1813
183.181500,1809
183.182000,1803
183.182500,1815
183.183000,1820
183.183500,1802
183.184000,1816
183.184500,1814
183.185000,1802
183.185500,1797
183.186000,1810
183.186500,1799
183.187000,1793
183.187500,1802
183.188000,1808
183.188500,1792
183.189000,1789
183.189500,1808
183.190000,1802
183.190500,1799
183.191000,1814
183.191500,1818
183.192000,1798
183.192500,1810
183.193000,1813
183.193500,1799
183.194000,1796
183.194500,1811
183.195000,1803
183.195500,1796
183.196000,1811
183.196500,1815
183.197000,1800
183.197500,1805
183.198000,1808
183.198500,1797
183.199000,1794
183.199500,1810
183.200000,1805
183.200500,1801
183.201000,1813
183.201500,1818
183.202000,1804
183.202500,1819
183.203000,1822
183.203500,1810
183.204000,1805
183.204500,1819
183.205000,1815
183.205500,1808
183.206000,1818
183.206500,1822
183.207000,1811
183.207500,1821
183.208000,1822
183.208500,1806
183.209000,1795
183.209500,1810
183.210000,1807
183.210500,1796
183.211000,1807
183.211500,1813
183.212000,1800
183.212500,1814
183.213000,1809
183.213500,1793
183.214000,1785
183.214500,1801
183.215000,1794
183.215500,1794
183.216000,1803
183.216500,1809
183.217000,1797
183.217500,1794
183.218000,1811
183.218500,1799
183.219000,1794
183.219500,1807
183.220000,1812
183.220500,1792
183.221000,1802
183.221500,1806
183.222000,1791
183.222500,1789
183.223000,1802
183.223500,1794
183.224000,1791
183.224500,1808
183.225000,1808
183.225500,1800
183.226000,1812
183.226500,1817
183.227000,1802
183.227500,1803
183.228000,1815
183.228500,1806
183.229000,1806
183.229500,1820
183.230000,1831
183.230500,1824
183.231000,1838
183.231500,1843
183.232000,1829
183.232500,1819
183.233000,1836
183.233500,1823
183.234000,1809
183.234500,1816
183.235000,1814
183.235500,1794
183.236000,1796
183.236500,1793
183.237000,1779
183.237500,1768
183.238000,1782
183.238500,1780
183.239000,1778
183.239500,1790
183.240000,1796
183.240500,1786
183.241000,1799
183.241500,1805
183.242000,1797
183.242500,1792
183.243000,1808
183.243500,1802
183.244000,1796
183.244500,1808
183.245000,1815
183.245500,1802
183.246000,1811
183.246500,1821
183.247000,1814
183.247500,1812
183.248000,1827
183.248500,1818
183.249000,1810
183.249500,1824
183.250000,1834
183.250500,1819
183.251000,1842
183.251500,1829
183.252000,1817
183.252500,1809
183.253000,1816
183.253500,1802
183.254000,1799
183.254500,1810
183.255000,1817
183.255500,1799
183.256000,1788
183.256500,1800
183.257000,1783
183.257500,1776
183.258000,1789
183.258500,1794
183.259000,1779
183.259500,1792
183.260000,1802
183.260500,1793
183.261000,1791
183.261500,1809
183.262000,1800
183.262500,1794
183.263000,1811
183.263500,1816
183.264000,1798
183.264500,1812
183.265000,1818
183.265500,1805
183.266000,1802
183.266500,1818
183.267000,1811
183.267500,1806
183.268000,1823
183.268500,1827
183.269000,1808
183.269500,1821
183.270000,1824
183.270500,1810
183.271000,1804
183.271500,1816
183.272000,1807
183.272500,1797
183.273000,1806
183.273500,1811
183.274000,1793
183.274500,1800
183.275000,1808
183.275500,1800
183.276000,1795
183.276500,1808
183.277000,1801
183.277500,1794
183.278000,1809
183.278500,1813
183.279000,1803
183.279500,1812
183.280000,1825
183.280500,1814
183.281000,1808
183.281500,1821
183.282000,1814
183.282500,1807
183.283000,1818
183.283500,1822
183.284000,1803
183.284500,1802
183.285000,1814
183.285500,1802
183.286000,1797
183.286500,1804
183.287000,1795
183.287500,1789
183.288000,1801
183.288500,1808
183.289000,1791
183.289500,1811
183.290000,1808
183.290500,1792
183.291000,1788
183.291500,1800
183.292000,1786
183.292500,1795
183.293000,1812
183.293500,1821
183.294000,1811
183.294500,1814
183.295000,1831
183.295500,1817
183.296000,1813
183.296500,1824
183.297000,1815
183.297500,1806
183.298000,1816
183.298500,1814
183.299000,1795
183.299500,1786
183.300000,1805
183.300500,1791
183.301000,1784
183.301500,1796
183.302000,1803
183.302500,1783
183.303000,1798
183.303500,1804
183.304000,1797
183.304500,1793
183.305000,1818
183.305500,1805
183.306000,1802
183.306500,1812
183.307000,1817
183.307500,1803
183.308000,1815
183.308500,1814
183.309000,1804
183.309500,1797
183.310000,1813
183.310500,1808
183.311000,1799
183.311500,1809
183.312000,1815
183.312500,1803
183.313000,1809
183.313500,1821
183.314000,1816
183.314500,1812
183.315000,1824
183.315500,1815
183.316000,1807
183.316500,1814
183.317000,1814
183.317500,1799
183.318000,1817
183.318500,1810
183.319000,1799
183.319500,1792
183.320000,1810
183.320500,1800
183.321000,1802
183.321500,1810
183.322000,1816
183.322500,1802
183.323000,1817
183.323500,1824
183.324000,1817
183.324500,1813
183.325000,1827
183.325500,1830
183.326000,1808
183.326500,1814
183.327000,1817
183.327500,1798
183.328000,1792
183.328500,1808
183.329000,1795
183.329500,1787
183.330000,1797
183.330500,1796
183.331000,1781
183.331500,1796
183.332000,1803
183.332500,1794
183.333000,1792
183.333500,1806
183.334000,1803
183.334500,1803
183.335000,1818
183.335500,1828
183.336000,1813
183.336500,1822
183.337000,1824
183.337500,1810
183.338000,1803
183.338500,1816
183.339000,1806
183.339500,1796
183.340000,1808
183.340500,1808
183.341000,1786
183.341500,1790
183.342000,1799
183.342500,1790
183.343000,1785
183.343500,1798
183.344000,1790
183.344500,1785
183.345000,1802
183.345500,1811
183.346000,1799
183.346500,1800
183.347000,1812
183.347500,1801
183.348000,1800
183.348500,1815
183.349000,1806
183.349500,1801
183.350000,1815
183.350500,1821
183.351000,1808
183.351500,1823
183.352000,1814
183.352500,1802
183.353000,1795
183.353500,1811
183.354000,1795
183.354500,1798
183.355000,1810
183.355500,1814
183.356000,1803
183.356500,1794
183.357000,1813
183.357500,1802
183.358000,1802
183.358500,1814
183.359000,1823
183.359500,1803
183.360000,1825
183.360500,1823
183.361000,1811
183.361500,1803
183.362000,1820
183.362500,1810
183.363000,1805
183.363500,1816
183.364000,1820
183.364500,1798
183.365000,1813
183.365500,1817
183.366000,1799
183.366500,1790
183.367000,1806
183.367500,1796
183.368000,1793
183.368500,1805
183.369000,1811
183.369500,1791
183.370000,1807
183.370500,1812
183.371000,1800
183.371500,1794
183.372000,1809
183.372500,1801
183.373000,1796
183.373500,1811
183.374000,1820
183.374500,1798
183.375000,1814
183.375500,1817
183.376000,1807
183.376500,1796
183.377000,1811
183.377500,1803
183.378000,1799
183.378500,1818
183.379000,1826
183.379500,1807
183.380000,1823
183.380500,1822
183.381000,1809
183.381500,1803
183.382000,1820
183.382500,1813
183.383000,1805
183.383500,1817
183.384000,1819
183.384500,1797
183.385000,1801
183.385500,1803
183.386000,1784
183.386500,1775
183.387000,1793
183.387500,1789
183.388000,1787
183.388500,1800
183.389000,1806
183.389500,1795
183.390000,1806
183.390500,1819
183.391000,1809
183.391500,1802
183.392000,1818
183.392500,1807
183.393000,1801
183.393500,1815
183.394000,1816
183.394500,1802
183.395000,1808
183.395500,1813
183.396000,1799
183.396500,1791
183.397000,1805
183.397500,1801
183.398000,1799
183.398500,1814
183.399000,1819
183.399500,1805
183.400000,1817
183.400500,1819
183.401000,1807
183.401500,1799
183.402000,1815
183.402500,1807
183.403000,1801
183.403500,1814
183.404000,1818
183.404500,1802
183.405000,1816
183.405500,1815
183.406000,1800
183.406500,1790
183.407000,1807
183.407500,1799
183.408000,1791
183.408500,1807
183.409000,1812
183.409500,1794
183.410000,1809
183.410500,1816
183.411000,1805
183.411500,1794
183.412000,1808
183.412500,1801
183.413000,1791
183.413500,1806
183.414000,1810
183.414500,1794
183.415000,1796
183.415500,1812
183.416000,1802
183.416500,1796
183.417000,1814
183.417500,1810
183.418000,1802
183.418500,1815
183.419000,1821
183.419500,1805
183.420000,1812
183.420500,1825
183.421000,1814
183.421500,1810
183.422000,1825
183.422500,1819
183.423000,1811
183.423500,1823
183.424000,1831
183.424500,1815
183.425000,1819
183.425500,1828
183.426000,1814
183.426500,1802
183.427000,1810
183.427500,1800
183.428000,1796
183.428500,1804
183.429000,1806
183.429500,1790
183.430000,1798
183.430500,1792
183.431000,1774
183.431500,1773
183.432000,1797
183.432500,1797
183.433000,1796
183.433500,1809
183.434000,1816
183.434500,1802
183.435000,1802
183.435500,1815
183.436000,1807
183.436500,1798
183.437000,1813
183.437500,1802
183.438000,1791
183.438500,1801
183.439000,1804
183.439500,1787
183.440000,1788
183.440500,1805
183.441000,1795
183.441500,1788
183.442000,1810
183.442500,1807
183.443000,1800
183.443500,1811
183.444000,1820
183.444500,1806
183.445000,1808
183.445500,1815
183.446000,1802
183.446500,1794
183.447000,1809
183.447500,1802
183.448000,1794
183.448500,1806
183.449000,1811
183.449500,1800
183.450000,1816
183.450500,1816
183.451000,1805
183.451500,1798
183.452000,1811
183.452500,1805
183.453000,1800
183.453500,1813
183.454000,1815
183.454500,1801
183.455000,1814
183.455500,1818
183.456000,1804
183.456500,1799
183.457000,1814
183.457500,1806
183.458000,1802
183.458500,1814
183.459000,1820
183.459500,1804
183.460000,1821
183.460500,1818
183.461000,1803
183.461500,1798
183.462000,1813
183.462500,1793
183.463000,1795
183.463500,1806
183.464000,1813
183.464500,1800
183.465000,1812
183.465500,1811
183.466000,1801
183.466500,1798
183.467000,1812
183.467500,1808
183.468000,1800
183.468500,1816
183.469000,1824
183.469500,1811
183.470000,1809
183.470500,1830
183.471000,1825
183.471500,1817
183.472000,1828
183.472500,1830
183.473000,1811
183.473500,1819
183.474000,1819
183.474500,1800
183.475000,1793
183.475500,1806
183.476000,1792
183.476500,1785
183.477000,1801
183.477500,1812
183.478000,1796
183.478500,1805
183.479000,1817
183.479500,1805
183.480000,1800
183.480500,1816
183.481000,1805
183.481500,1795
183.482000,1806
183.482500,1806
183.483000,1782
183.483500,1792
183.484000,1795
183.484500,1791
183.485000,1785
183.485500,1797
183.486000,1791
183.486500,1784
183.487000,1800
183.487500,1806
183.488000,1791
183.488500,1793
183.489000,1808
183.489500,1803
183.490000,1806
183.490500,1817
183.491000,1816
183.491500,1805
183.492000,1818
183.492500,1824
183.493000,1807
183.493500,1827
183.494000,1817
183.494500,1806
183.495000,1800
183.495500,1814
183.496000,1806
183.496500,1796
183.497000,1806
183.497500,1810
183.498000,1795
183.498500,1794
183.499000,1805
183.499500,1796
183.500000,1794
183.500500,1813
183.501000,1808
183.501500,1802
183.502000,1811
183.502500,1816
183.503000,1801
183.503500,1814
183.504000,1820
183.504500,1808
183.505000,1804
183.505500,1822
183.506000,1812
183.506500,1803
183.507000,1814
183.507500,1818
183.508000,1803
183.508500,1813
183.509000,1816
183.509500,1804
183.510000,1804
183.510500,1823
183.511000,1810
183.511500,1800
183.512000,1812
183.512500,1816
183.513000,1800
183.513500,1805
183.514000,1812
183.514500,1800
183.515000,1803
183.515500,1818
183.516000,1818
183.516500,1807
183.517000,1818
183.517500,1824
183.518000,1811
183.518500,1813
183.519000,1820
183.519500,1807
183.520000,1801
183.520500,1816
183.521000,1801
183.521500,1794
183.522000,1803
183.522500,1808
183.523000,1793
183.523500,1800
183.524000,1813
183.524500,1803
183.525000,1806
183.525500,1817
183.526000,1813
183.526500,1804
183.527000,1812
183.527500,1815
183.528000,1802
183.528500,1809
183.529000,1819
183.529500,1803
183.530000,1793
183.530500,1806
183.531000,1799
183.531500,1793
183.532000,1808
183.532500,1818
183.533000,1801
183.533500,1798
183.534000,1810
183.534500,1801
183.535000,1795
183.535500,1810
183.536000,1802
183.536500,1791
183.537000,1801
183.537500,1808
183.538000,1793
183.538500,1813
183.539000,1803
183.539500,1794
183.540000,1791
183.540500,1805
183.541000,1800
183.541500,1794
183.542000,1806
183.542500,1813
183.543000,1800
183.543500,1801
183.544000,1811
183.544500,1800
183.545000,1793
183.545500,1809
183.546000,1793
183.546500,1792
183.547000,1804
183.547500,1810
183.548000,1797
183.548500,1792
183.549000,1812
183.549500,1806
183.550000,1800
183.550500,1813
183.551000,1818
183.551500,1794
183.552000,1810
183.552500,1815
183.553000,1802
183.553500,1800
183.554000,1818
183.554500,1808
183.555000,1809
183.555500,1822
183.556000,1826
183.556500,1805
183.557000,1819
183.557500,1821
183.558000,1805
183.558500,1799
183.559000,1816
183.559500,1806
183.560000,1799
183.560500,1812
183.561000,1817
183.561500,1796
183.562000,1806
183.562500,1815
183.563000,1804
183.563500,1801
183.564000,1817
183.564500,1809
183.565000,1802
183.565500,1819
183.566000,1827
183.566500,1810
183.567000,1825
183.567500,1826
183.568000,1814
183.568500,1803
183.569000,1811
183.569500,1803
183.570000,1800
183.570500,1810
183.571000,1814
183.571500,1790
183.572000,1801
183.572500,1803
183.573000,1781
183.573500,1771
183.574000,1787
183.574500,1782
183.575000,1785
183.575500,1800
183.576000,1810
183.576500,1793
183.577000,1807
183.577500,1811
183.578000,1797
183.578500,1798
183.579000,1816
183.579500,1806
183.580000,1806
183.580500,1820
183.581000,1822
183.581500,1805
183.582000,1816
183.582500,1822
183.583000,1808
183.583500,1800
183.584000,1816
183.584500,1802
183.585000,1798
183.585500,1808
183.586000,1792
183.586500,1790
183.587000,1797
183.587500,1810
183.588000,1802
183.588500,1802
183.589000,1822
183.589500,1813
183.590000,1805
183.590500,1821
183.591000,1827
183.591500,1811
183.592000,1823
183.592500,1825
183.593000,1810
183.593500,1805
183.594000,1816
183.594500,1799
183.595000,1794
183.595500,1803
183.596000,1811
183.596500,1795
183.597000,1799
183.597500,1804
183.598000,1789
183.598500,1783
183.599000,1799
183.599500,1789
183.600000,1787
183.600500,1799
183.601000,1810
183.601500,1791
183.602000,1803
183.602500,1810
183.603000,1796
183.603500,1796
183.604000,1812
183.604500,1806
183.605000,1803
183.605500,1820
183.606000,1824
183.606500,1805
183.607000,1810
183.607500,1818
183.608000,1806
183.608500,1803
183.609000,1821
183.609500,1818
183.610000,1807
183.610500,1821
183.611000,1824
183.611500,1806
183.612000,1816
183.612500,1814
183.613000,1799
183.613500,1795
183.614000,1807
183.614500,1796
183.615000,1794
183.615500,1800
183.616000,1802
183.616500,1786
183.617000,1793
183.617500,1813
183.618000,1803
183.618500,1797
183.619000,1814
183.619500,1810
183.620000,1804
183.620500,1821
183.621000,1826
183.621500,1808
183.622000,1807
183.622500,1814
183.623000,1802
183.623500,1799
183.624000,1810
183.624500,1805
183.625000,1801
183.625500,1813
183.626000,1817
183.626500,1801
183.627000,1825
183.627500,1818
183.628000,1808
183.628500,1803
183.629000,1820
183.629500,1815
183.630000,1809
183.630500,1817
183.631000,1822
183.631500,1803
183.632000,1797
183.632500,1809
183.633000,1797
183.633500,1791
183.634000,1803
183.634500,1805
183.635000,1788
183.635500,1795
183.636000,1802
183.636500,1787
183.637000,1787
183.637500,1805
183.638000,1797
183.638500,1792
183.639000,1806
183.639500,1815
183.640000,1803
183.640500,1818
183.641000,1821
183.641500,1803
183.642000,1796
183.642500,1818
183.643000,1811
183.643500,1808
183.644000,1823
183.644500,1829
183.645000,1814
183.645500,1817
183.646000,1822
183.646500,1806
183.647000,1799
183.647500,1812
183.648000,1805
183.648500,1795
183.649000,1804
183.649500,1809
183.650000,1788
183.650500,1796
183.651000,1801
183.651500,1786
183.652000,1784
183.652500,1799
183.653000,1793
183.653500,1788
183.654000,1801
183.654500,1809
183.655000,1802
183.655500,1814
183.656000,1817
183.656500,1801
183.657000,1800
183.657500,1818
183.658000,1811
183.658500,1803
183.659000,1814
183.659500,1817
183.660000,1806
183.660500,1812
183.661000,1820
183.661500,1801
183.662000,1797
183.662500,1809
183.663000,1802
183.663500,1797
183.664000,1807
183.664500,1817
183.665000,1804
183.665500,1804
183.666000,1817
183.666500,1809
183.667000,1806
183.667500,1819
183.668000,1808
183.668500,1808
183.669000,1817
183.669500,1822
183.670000,1812
183.670500,1821
183.671000,1813
183.671500,1797
183.672000,1792
183.672500,1807
183.673000,1801
183.673500,1795
183.674000,1806
183.674500,1810
183.675000,1800
183.675500,1798
183.676000,1814
183.676500,1807
183.677000,1799
183.677500,1812
183.678000,1813
183.678500,1794
183.679000,1807
183.679500,1808
183.680000,1793
183.680500,1787
183.681000,1807
183.681500,1793
183.682000,1786
183.682500,1802
183.683000,1805
183.683500,1789
183.684000,1801
183.684500,1807
183.685000,1799
183.685500,1798
183.686000,1820
183.686500,1811
183.687000,1806
183.687500,1820
183.688000,1823
183.688500,1809
183.689000,1819
183.689500,1824
183.690000,1812
183.690500,1803
183.691000,1819
183.691500,1802
183.692000,1796
183.692500,1807
183.693000,1810
183.693500,1791
183.694000,1794
183.694500,1801
183.695000,1791
183.695500,1791
183.696000,1812
183.696500,1805
183.697000,1806
183.697500,1821
183.698000,1827
183.698500,1810
183.699000,1821
183.699500,1825
183.700000,1814
183.700500,1802
183.701000,1822
183.701500,1809
183.702000,1799
183.702500,1805
183.703000,1808
183.703500,1793
183.704000,1805
183.704500,1807
183.705000,1796
183.705500,1789
183.706000,1809
183.706500,1797
183.707000,1795
183.707500,1808
183.708000,1815
183.708500,1802
183.709000,1805
183.709500,1819
183.710000,1814
183.710500,1806
183.711000,1821
183.711500,1814
183.712000,1806
183.712500,1817
183.713000,1820
183.713500,1802
183.714000,1806
183.714500,1812
183.715000,1804
183.715500,1790
183.716000,1802
183.716500,1792
183.717000,1785
183.717500,1800
183.718000,1805
183.718500,1791
183.719000,1793
183.719500,1804
183.720000,1794
183.720500,1791
183.721000,1809
183.721500,1804
183.722000,1804
183.722500,1821
183.723000,1831
183.723500,1815
183.724000,1834
183.724500,1825
183.725000,1815
183.725500,1805
183.726000,1820
183.726500,1808
183.727000,1800
183.727500,1806
183.728000,1810
183.728500,1794
183.729000,1799
183.729500,1803
183.730000,1797
183.730500,1789
183.731000,1806
183.731500,1795
183.732000,1795
183.732500,1805
183.733000,1812
183.733500,1798
183.734000,1816
183.734500,1813
183.735000,1812
183.735500,1808
183.736000,1821
183.736500,1810
183.737000,1802
183.737500,1814
183.738000,1816
183.738500,1802
183.739000,1820
183.739500,1812
183.740000,1799
183.740500,1792
183.741000,1802
183.741500,1786
183.742000,1779
183.742500,1796
183.743000,1804
183.743500,1791
183.744000,1811
183.744500,1806
183.745000,1800
183.745500,1795
183.746000,1811
183.746500,1800
183.747000,1795
183.747500,1809
183.748000,1817
183.748500,1804
183.749000,1810
183.749500,1820
183.750000,1809
183.750500,1809
183.751000,1827
183.751500,1818
183.752000,1811
183.752500,1822
183.753000,1827
183.753500,1810
183.754000,1810
183.754500,1818
183.755000,1810
183.755500,1805
183.756000,1817
183.756500,1811
183.757000,1797
183.757500,1804
183.758000,1810
183.758500,1794
183.759000,1795
183.759500,1809
183.760000,1802
183.760500,1796
183.761000,1807
183.761500,1799
183.762000,1791
183.762500,1803
183.763000,1810
183.763500,1798
183.764000,1803
183.764500,1810
183.765000,1801
183.765500,1793
183.766000,1808
183.766500,1796
183.767000,1794
183.767500,1807
183.768000,1814
183.768500,1799
183.769000,1822
183.769500,1815
183.770000,1805
183.770500,1802
183.771000,1816
183.771500,1810
183.772000,1809
183.772500,1827
183.773000,1842
183.773500,1833
183.774000,1849
183.774500,1844
183.775000,1836
183.775500,1826
183.776000,1840
183.776500,1823
183.777000,1811
183.777500,1816
183.778000,1812
183.778500,1785
183.779000,1794
183.779500,1785
183.780000,1778
183.780500,1770
183.781000,1790
183.781500,1778
183.782000,1779
183.782500,1789
183.783000,1796
183.783500,1785
183.784000,1783
183.784500,1798
183.785000,1794
183.785500,1788
183.786000,1803
183.786500,1809
183.787000,1791
183.787500,1806
183.788000,1812
183.788500,1801
183.789000,1800
183.789500,1821
183.790000,1819
183.790500,1811
183.791000,1822
183.791500,1826
183.792000,1808
183.792500,1818
183.793000,1820
183.793500,1810
183.794000,1800
183.794500,1815
183.795000,1810
183.795500,1799
183.796000,1805
183.796500,1807
183.797000,1793
183.797500,1803
183.798000,1809
183.798500,1796
183.799000,1790
183.799500,1805
183.800000,1803
183.800500,1793
183.801000,1806
183.801500,1811
183.802000,1795
183.802500,1806
183.803000,1815
183.803500,1803
183.804000,1799
183.804500,1815
183.805000,1809
183.805500,1803
183.806000,1815
183.806500,1820
183.807000,1800
183.807500,1807
183.808000,1811
183.808500,1797
183.809000,1793
183.809500,1808
183.810000,1803
183.810500,1798
183.811000,1813
183.811500,1816
183.812000,1797
183.812500,1807
183.813000,1812
183.813500,1798
183.814000,1794
183.814500,1808
183.815000,1808
183.815500,1802
183.816000,1815
183.816500,1821
183.817000,1805
183.817500,1809
183.818000,1817
183.818500,1810
183.819000,1805
183.819500,1825
183.820000,1822
183.820500,1814
183.821000,1821
183.821500,1825
183.822000,1807
183.822500,1823
183.823000,1817
183.823500,1803
183.824000,1798
183.824500,1809
183.825000,1806
183.825500,1789
183.826000,1800
183.826500,1805
183.827000,1793
183.827500,1812
183.828000,1821
183.828500,1817
183.829000,1813
183.829500,1829
183.830000,1822
183.830500,1813
183.831000,1820
183.831500,1823
183.832000,1808
183.832500,1818
183.833000,1812
183.833500,1793
183.834000,1780
183.834500,1792
183.835000,1783
183.835500,1779
183.836000,1793
183.836500,1799
183.837000,1785
183.837500,1808
183.838000,1798
183.838500,1788
183.839000,1786
183.839500,1802
183.840000,1801
183.840500,1796
183.841000,1810
183.841500,1813
183.842000,1796
183.842500,1817
183.843000,1814
183.843500,1807
183.844000,1804
183.844500,1817
183.845000,1814
183.845500,1804
183.846000,1815
183.846500,1816
183.847000,1799
183.847500,1804
183.848000,1809
183.848500,1799
183.849000,1793
183.849500,1808
183.850000,1803
183.850500,1798
183.851000,1812
183.851500,1817
183.852000,1801
183.852500,1810
183.853000,1816
183.853500,1804
183.854000,1800
183.854500,1815
183.855000,1806
183.855500,1798
183.856000,1812
183.856500,1813
183.857000,1800
183.857500,1810
183.858000,1816
183.858500,1805
183.859000,1800
183.859500,1817
183.860000,1807
183.860500,1800
183.861000,1814
183.861500,1816
183.862000,1803
183.862500,1811
183.863000,1815
183.863500,1802
183.864000,1798
183.864500,1818
183.865000,1813
183.865500,1808
183.866000,1820
183.866500,1821
183.867000,1803
183.867500,1809
183.868000,1813
183.868500,1799
183.869000,1793
183.869500,1810
183.870000,1802
183.870500,1788
183.871000,1801
183.871500,1805
183.872000,1793
183.872500,1796
183.873000,1814
183.873500,1808
183.874000,1810
183.874500,1825
183.875000,1822
183.875500,1815
183.876000,1823
183.876500,1830
183.877000,1814
183.877500,1830
183.878000,1818
183.878500,1802
183.879000,1791
183.879500,1802
183.880000,1785
183.880500,1782
183.881000,1794
183.881500,1798
183.882000,1787
183.882500,1783
183.883000,1800
183.883500,1789
183.884000,1786
183.884500,1803
183.885000,1814
183.885500,1794
183.886000,1807
183.886500,1812
183.887000,1800
183.887500,1796
183.888000,1813
183.888500,1806
183.889000,1803
183.889500,1816
183.890000,1821
183.890500,1806
183.891000,1818
183.891500,1819
183.892000,1808
183.892500,1804
183.893000,1830
183.893500,1820
183.894000,1814
183.894500,1827
183.895000,1828
183.895500,1807
183.896000,1819
183.896500,1819
183.897000,1808
183.897500,1797
183.898000,1812
183.898500,1802
183.899000,1795
183.899500,1805
183.900000,1808
183.900500,1799
183.901000,1810
183.901500,1816
183.902000,1801
183.902500,1794
183.903000,1807
183.903500,1801
183.904000,1795
183.904500,1802
183.905000,1806
183.905500,1791
183.906000,1802
183.906500,1803
183.907000,1791
183.907500,1780
183.908000,1797
183.908500,1791
183.909000,1788
183.909500,1802
183.910000,1812
183.910500,1797
183.911000,1805
183.911500,1816
183.912000,1808
183.912500,1803
183.913000,1818
183.913500,1813
183.914000,1803
183.914500,1817
183.915000,1827
183.915500,1809
183.916000,1822
183.916500,1816
183.917000,1800
183.917500,1794
183.918000,1807
183.918500,1796
183.919000,1791
183.919500,1802
183.920000,1809
183.920500,1798
183.921000,1813
183.921500,1807
183.922000,1795
183.922500,1791
183.923000,1810
183.923500,1801
183.924000,1802
183.924500,1818
183.925000,1831
183.925500,1817
183.926000,1831
183.926500,1828
183.927000,1818
183.927500,1815
183.928000,1831
183.928500,1819
183.929000,1817
183.929500,1827
183.930000,1834
183.930500,1817
183.931000,1821
183.931500,1812
183.932000,1793
183.932500,1791
183.933000,1804
183.933500,1808
183.934000,1788
183.934500,1795
183.935000,1802
183.935500,1784
183.936000,1778
183.936500,1792
183.937000,1787
183.937500,1784
183.938000,1797
183.938500,1806
183.939000,1787
183.939500,1802
183.940000,1808
183.940500,1794
183.941000,1792
183.941500,1808
183.942000,1801
183.942500,1795
183.943000,1813
183.943500,1822
183.944000,1806
183.944500,1814
183.945000,1824
183.945500,1804
183.946000,1801
183.946500,1814
183.947000,1806
183.947500,1803
183.948000,1814
183.948500,1822
183.949000,1804
183.949500,1814
183.950000,1820
183.950500,1804
183.951000,1800
183.951500,1816
183.952000,1811
183.952500,1806
183.953000,1814
183.953500,1818
183.954000,1799
183.954500,1807
183.955000,1816
183.955500,1802
183.956000,1798
183.956500,1808
183.957000,1801
183.957500,1795
183.958000,1806
183.958500,1811
183.959000,1793
183.959500,1802
183.960000,1809
183.960500,1796
183.961000,1794
183.961500,1806
183.962000,1801
183.962500,1793
183.963000,1804
183.963500,1810
183.964000,1798
183.964500,1799
183.965000,1824
183.965500,1809
183.966000,1808
183.966500,1824
183.967000,1822
183.967500,1815
183.968000,1821
183.968500,1825
183.969000,1808
183.969500,1814
183.970000,1818
183.970500,1806
183.971000,1796
183.971500,1803
183.972000,1796
183.972500,1781
183.973000,1790
183.973500,1798
183.974000,1785
183.974500,1795
183.975000,1805
183.975500,1797
183.976000,1795
183.976500,1810
183.977000,1808
183.977500,1805
183.978000,1817
183.978500,1823
183.979000,1811
183.979500,1817
183.980000,1824
183.980500,1816
183.981000,1809
183.981500,1825
183.982000,1818
183.982500,1815
183.983000,1822
183.983500,1825
183.984000,1807
183.984500,1818
183.985000,1820
183.985500,1804
183.986000,1799
183.986500,1809
183.987000,1792
183.987500,1787
183.988000,1795
183.988500,1795
183.989000,1778
183.989500,1773
183.990000,1794
183.990500,1787
183.991000,1786
183.991500,1803
183.992000,1808
183.992500,1792
183.993000,1803
183.993500,1810
183.994000,1794
183.994500,1790
183.995000,1813
183.995500,1805
183.996000,1801
183.996500,1818
183.997000,1824
183.997500,1806
183.998000,1818
183.998500,1824
183.999000,1815
183.999500,1815
184.000000,1830
184.000500,1823
184.001000,1817
184.001500,1823
184.002000,1826
184.002500,1806
184.003000,1811
184.003500,1813
184.004000,1803
184.004500,1797
184.005000,1818
184.005500,1800
184.006000,1794
184.006500,1804
184.007000,1811
184.007500,1793
184.008000,1807
184.008500,1815
184.009000,1799
184.009500,1794
184.010000,1812
184.010500,1802
184.011000,1798
184.011500,1804
184.012000,1795
184.012500,1794
184.013000,1808
184.013500,1815
184.014000,1800
184.014500,1793
184.015000,1809
184.015500,1799
184.016000,1795
184.016500,1803
184.017000,1802
184.017500,1788
184.018000,1805
184.018500,1814
184.019000,1805
184.019500,1808
184.020000,1817
184.020500,1803
184.021000,1800
184.021500,1817
184.022000,1810
184.022500,1809
184.023000,1821
184.023500,1821
184.024000,1806
184.024500,1795
184.025000,1811
184.025500,1799
184.026000,1789
184.026500,1799
184.027000,1803
184.027500,1785
184.028000,1794
184.028500,1796
184.029000,1784
184.029500,1783
184.030000,1808
184.030500,1799
184.031000,1793
184.031500,1805
184.032000,1813
184.032500,1799
184.033000,1810
184.033500,1811
184.034000,1803
184.034500,1803
184.035000,1823
184.035500,1812
184.036000,1805
184.036500,1818
184.037000,1822
184.037500,1807
184.038000,1818
184.038500,1823
184.039000,1810
184.039500,1806
184.040000,1827
184.040500,1824
184.041000,1818
184.041500,1824
184.042000,1830
184.042500,1814
184.043000,1821
184.043500,1821
184.044000,1806
184.044500,1797
184.045000,1810
184.045500,1797
184.046000,1786
184.046500,1791
184.047000,1795
184.047500,1775
184.048000,1787
184.048500,1794
184.049000,1785
184.049500,1784
184.050000,1798
184.050500,1796
184.051000,1789
184.051500,1804
184.052000,1808
184.052500,1797
184.053000,1806
184.053500,1812
184.054000,1802
184.054500,1797
184.055000,1818
184.055500,1801
184.056000,1797
184.056500,1808
184.057000,1813
184.057500,1800
184.058000,1809
184.058500,1817
184.059000,1803
184.059500,1799
184.060000,1822
184.060500,1813
184.061000,1818
184.061500,1832
184.062000,1838
184.062500,1824
184.063000,1830
184.063500,1832
184.064000,1817
184.064500,1810
184.065000,1823
184.065500,1809
184.066000,1801
184.066500,1811
184.067000,1810
184.067500,1788
184.068000,1787
184.068500,1792
184.069000,1780
184.069500,1780
184.070000,1803
184.070500,1795
184.071000,1790
184.071500,1800
184.072000,1807
184.072500,1792
184.073000,1804
184.073500,1814
184.074000,1802
184.074500,1800
184.075000,1819
184.075500,1815
184.076000,1810
184.076500,1818
184.077000,1821
184.077500,1800
184.078000,1809
184.078500,1813
184.079000,1800
184.079500,1795
184.080000,1813
184.080500,1803
184.081000,1797
184.081500,1810
184.082000,1821
184.082500,1808
184.083000,1825
184.083500,1829
184.084000,1824
184.084500,1819
184.085000,1839
184.085500,1825
184.086000,1820
184.086500,1825
184.087000,1827
184.087500,1806
184.088000,1801
184.088500,1806
184.089000,1789
184.089500,1780
184.090000,1796
184.090500,1790
184.091000,1783
184.091500,1793
184.092000,1795
184.092500,1781
184.093000,1784
184.093500,1798
184.094000,1789
184.094500,1786
184.095000,1803
184.095500,1795
184.096000,1792
184.096500,1804
184.097000,1809
184.097500,1796
184.098000,1821
184.098500,1814
184.099000,1808
184.099500,1806
184.100000,1824
184.100500,1814
184.101000,1818
184.101500,1820
184.102000,1823
184.102500,1812
184.103000,1808
184.103500,1823
184.104000,1814
184.104500,1810
184.105000,1819
184.105500,1822
184.106000,1798
184.106500,1806
184.107000,1812
184.107500,1803
184.108000,1796
184.108500,1811
184.109000,1799
184.109500,1788
184.110000,1797
184.110500,1797
184.111000,1778
184.111500,1784
184.112000,1793
184.112500,1781
184.113000,1780
184.113500,1801
184.114000,1793
184.114500,1788
184.115000,1809
184.115500,1814
184.116000,1798
184.116500,1811
184.117000,1817
184.117500,1804
184.118000,1800
184.118500,1815
184.119000,1807
184.119500,1801
184.120000,1821
184.120500,1821
184.121000,1807
184.121500,1811
184.122000,1819
184.122500,1811
184.123000,1806
184.123500,1823
184.124000,1819
184.124500,1812
184.125000,1823
184.125500,1830
184.126000,1813
184.126500,1812
184.127000,1818
184.127500,1807
184.128000,1799
184.128500,1813
184.129000,1798
184.129500,1791
184.130000,1803
184.130500,1806
184.131000,1792
184.131500,1793
184.132000,1806
184.132500,1791
184.133000,1787
184.133500,1805
184.134000,1799
184.134500,1793
184.135000,1807
184.135500,1809
184.136000,1795
184.136500,1802
184.137000,1809
184.137500,1801
184.138000,1797
184.138500,1813
184.139000,1807
184.139500,1800
184.140000,1814
184.140500,1822
184.141000,1807
184.141500,1825
184.142000,1819
184.142500,1809
184.143000,1806
184.143500,1820
184.144000,1814
184.144500,1808
184.145000,1820
184.145500,1823
184.146000,1808
184.146500,1831
184.147000,1818
184.147500,1808
184.148000,1804
184.148500,1816
184.149000,1804
184.149500,1796
184.150000,1805
184.150500,1810
184.151000,1796
184.151500,1807
184.152000,1810
184.152500,1797
184.153000,1789
184.153500,1804
184.154000,1800
184.154500,1797
184.155000,1810
184.155500,1814
184.156000,1797
184.156500,1797
184.157000,1810
184.157500,1797
184.158000,1793
184.158500,1810
184.159000,1806
184.159500,1798
184.160000,1814
184.160500,1820
184.161000,1803
184.161500,1799
184.162000,1819
184.162500,1817
184.163000,1824
184.163500,1842
184.164000,1837
184.164500,1826
184.165000,1838
184.165500,1834
184.166000,1816
184.166500,1821
184.167000,1817
184.167500,1803
184.168000,1793
184.168500,1799
184.169000,1784
184.169500,1773
184.170000,1785
184.170500,1796
184.171000,1784
184.171500,1804
184.172000,1798
184.172500,1788
184.173000,1784
184.173500,1796
184.174000,1789
184.174500,1786
184.175000,1800
184.175500,1812
184.176000,1797
184.176500,1800
184.177000,1808
184.177500,1798
184.178000,1793
184.178500,1806
184.179000,1803
184.179500,1794
184.180000,1806
184.180500,1814
184.181000,1798
184.181500,1807
184.182000,1816
184.182500,1805
184.183000,1800
184.183500,1816
184.184000,1807
184.184500,1801
184.185000,1812
184.185500,1818
184.186000,1808
184.186500,1826
184.187000,1820
184.187500,1805
184.188000,1799
184.188500,1813
184.189000,1805
184.189500,1796
184.190000,1811
184.190500,1817
184.191000,1803
184.191500,1825
184.192000,1816
184.192500,1805
184.193000,1800
184.193500,1817
184.194000,1809
184.194500,1800
184.195000,1817
184.195500,1823
184.196000,1805
184.196500,1803
184.197000,1816
184.197500,1804
184.198000,1797
184.198500,1810
184.199000,1802
184.199500,1793
184.200000,1808
184.200500,1809
184.201000,1795
184.201500,1796
184.202000,1813
184.202500,1802
184.203000,1799
184.203500,1821
184.204000,1828
184.204500,1821
184.205000,1840
184.205500,1841
184.206000,1824
184.206500,1819
184.207000,1827
184.207500,1809
184.208000,1802
184.208500,1812
184.209000,1802
184.209500,1786
184.210000,1790
184.210500,1794
184.211000,1779
184.211500,1781
184.212000,1794
184.212500,1786
184.213000,1783
184.213500,1801
184.214000,1799
184.214500,1796
184.215000,1809
184.215500,1815
184.216000,1802
184.216500,1800
184.217000,1813
184.217500,1798
184.218000,1794
184.218500,1808
184.219000,1802
184.219500,1793
184.220000,1803
184.220500,1814
184.221000,1798
184.221500,1808
184.222000,1806
184.222500,1796
184.223000,1794
184.223500,1809
184.224000,1803
184.224500,1798
184.225000,1813
184.225500,1815
184.226000,1803
184.226500,1825
184.227000,1817
184.227500,1804
184.228000,1800
184.228500,1814
184.229000,1801
184.229500,1798
184.230000,1813
184.230500,1821
184.231000,1807
184.231500,1828
184.232000,1818
184.232500,1811
184.233000,1805
184.233500,1818
184.234000,1810
184.234500,1804
184.235000,1816
184.235500,1820
184.236000,1808
184.236500,1824
184.237000,1812
184.237500,1803
184.238000,1798
184.238500,1811
184.239000,1804
184.239500,1798
184.240000,1814
184.240500,1821
184.241000,1806
184.241500,1816
184.242000,1817
184.242500,1804
184.243000,1800
184.243500,1810
184.244000,1806
184.244500,1799
184.245000,1813
184.245500,1817
184.246000,1795
184.246500,1793
184.247000,1804
184.247500,1796
184.248000,1794
184.248500,1808
184.249000,1805
184.249500,1796
184.250000,1812
184.250500,1814
184.251000,1798
184.251500,1818
184.252000,1813
184.252500,1808
184.253000,1802
184.253500,1819
184.254000,1809
184.254500,1803
184.255000,1816
184.255500,1819
184.256000,1802
184.256500,1816
184.257000,1805
184.257500,1791
184.258000,1786
184.258500,1800
184.259000,1783
184.259500,1787
184.260000,1804
184.260500,1814
184.261000,1801
184.261500,1809
184.262000,1814
184.262500,1808
184.263000,1808
184.263500,1821
184.264000,1825
184.264500,1807
184.265000,1818
184.265500,1821
184.266000,1804
184.266500,1792
184.267000,1810
184.267500,1802
184.268000,1798
184.268500,1812
184.269000,1798
184.269500,1793
184.270000,1806
184.270500,1815
184.271000,1800
184.271500,1795
184.272000,1810
184.272500,1798
184.273000,1793
184.273500,1810
184.274000,1805
184.274500,1799
184.275000,1812
184.275500,1817
184.276000,1803
184.276500,1797
184.277000,1816
184.277500,1809
184.278000,1807
184.278500,1820
184.279000,1828
184.279500,1810
184.280000,1822
184.280500,1825
184.281000,1808
184.281500,1798
184.282000,1817
184.282500,1804
184.283000,1797
184.283500,1810
184.284000,1812
184.284500,1794
184.285000,1805
184.285500,1808
184.286000,1792
184.286500,1787
184.287000,1800
184.287500,1790
184.288000,1787
184.288500,1801
184.289000,1805
184.289500,1789
184.290000,1801
184.290500,1812
184.291000,1803
184.291500,1796
184.292000,1812
184.292500,1804
184.293000,1798
184.293500,1811
184.294000,1817
184.294500,1799
184.295000,1805
184.295500,1813
184.296000,1803
184.296500,1795
184.297000,1817
184.297500,1818
184.298000,1821
184.298500,1838
184.299000,1844
184.299500,1831
184.300000,1850
184.300500,1844
184.301000,1831
184.301500,1817
184.302000,1821
184.302500,1799
184.303000,1796
184.303500,1799
184.304000,1797
184.304500,1777
184.305000,1770
184.305500,1785
184.306000,1774
184.306500,1771
184.307000,1787
184.307500,1796
184.308000,1780
184.308500,1798
184.309000,1806
184.309500,1794
184.310000,1796
184.310500,1811
184.311000,1803
184.311500,1800
184.312000,1816
184.312500,1821
184.313000,1798
184.313500,1813
184.314000,1817
184.314500,1805
184.315000,1802
184.315500,1815
184.316000,1807
184.316500,1800
184.317000,1811
184.317500,1816
184.318000,1797
184.318500,1806
184.319000,1810
184.319500,1799
184.320000,1796
184.320500,1809
184.321000,1805
184.321500,1797
184.322000,1813
184.322500,1817
184.323000,1803
184.323500,1821
184.324000,1816
184.324500,1807
184.325000,1803
184.325500,1819
184.326000,1803
184.326500,1807
184.327000,1817
184.327500,1819
184.328000,1805
184.328500,1802
184.329000,1818
184.329500,1808
184.330000,1801
184.330500,1813
184.331000,1821
184.331500,1800
184.332000,1812
184.332500,1817
184.333000,1801
184.333500,1798
184.334000,1816
184.334500,1804
184.335000,1797
184.335500,1804
184.336000,1807
184.336500,1787
184.337000,1801
184.337500,1805
184.338000,1795
184.338500,1796
184.339000,1809
184.339500,1798
184.340000,1794
184.340500,1809
184.341000,1814
184.341500,1796
184.342000,1803
184.342500,1812
184.343000,1799
184.343500,1793
184.344000,1809
184.344500,1802
184.345000,1800
184.345500,1815
184.346000,1822
184.346500,1807
184.347000,1815
184.347500,1820
184.348000,1806
184.348500,1801
184.349000,1817
184.349500,1813
184.350000,1823
184.350500,1833
184.351000,1838
184.351500,1819
184.352000,1824
184.352500,1826
184.353000,1811
184.353500,1801
184.354000,1813
184.354500,1796
184.355000,1792
184.355500,1796
184.356000,1797
184.356500,1776
184.357000,1782
184.357500,1804
184.358000,1799
184.358500,1800
184.359000,1819
184.359500,1808
184.360000,1801
184.360500,1818
184.361000,1826
184.361500,1803
184.362000,1804
184.362500,1815
184.363000,1803
184.363500,1791
184.364000,1800
184.364500,1786
184.365000,1777
184.365500,1791
184.366000,1798
184.366500,1783
184.367000,1787
184.367500,1802
184.368000,1793
184.368500,1796
184.369000,1816
184.369500,1815
184.370000,1806
184.370500,1818
184.371000,1822
184.371500,1805
184.372000,1805
184.372500,1819
184.373000,1807
184.373500,1799
184.374000,1815
184.374500,1807
184.375000,1798
184.375500,1809
184.376000,1815
184.376500,1796
184.377000,1795
184.377500,1807
184.378000,1795
184.378500,1791
184.379000,1807
184.379500,1801
184.380000,1799
184.380500,1805
184.381000,1813
184.381500,1796
184.382000,1800
184.382500,1812
184.383000,1802
184.383500,1796
184.384000,1811
184.384500,1804
184.385000,1802
184.385500,1814
184.386000,1822
184.386500,1806
184.387000,1805
184.387500,1818
184.388000,1806
184.388500,1803
184.389000,1817
184.389500,1812
184.390000,1807
184.390500,1817
184.391000,1825
184.391500,1807
184.392000,1816
184.392500,1823
184.393000,1814
184.393500,1810
184.394000,1825
184.394500,1821
184.395000,1814
184.395500,1825
184.396000,1831
184.396500,1810
184.397000,1823
184.397500,1812
184.398000,1797
184.398500,1788
184.399000,1798
184.399500,1788
184.400000,1782
184.400500,1790
184.401000,1798
184.401500,1794
184.402000,1814
184.402500,1821
184.403000,1812
184.403500,1808
184.404000,1824
184.404500,1825
184.405000,1813
184.405500,1821
184.406000,1822
184.406500,1799
184.407000,1786
184.407500,1799
184.408000,1782
184.408500,1772
184.409000,1790
184.409500,1797
184.410000,1781
184.410500,1794
184.411000,1799
184.411500,1784
184.412000,1781
184.412500,1803
184.413000,1797
184.413500,1794
184.414000,1808
184.414500,1816
184.415000,1800
184.415500,1810
184.416000,1814
184.416500,1803
184.417000,1800
184.417500,1815
184.418000,1808
184.418500,1800
184.419000,1815
184.419500,1820
184.420000,1809
184.420500,1820
184.421000,1827
184.421500,1807
184.422000,1803
184.422500,1817
184.423000,1810
184.423500,1804
184.424000,1816
184.424500,1817
184.425000,1799
184.425500,1812
184.426000,1817
184.426500,1798
184.427000,1791
184.427500,1814
184.428000,1808
184.428500,1803
184.429000,1819
184.429500,1828
184.430000,1811
184.430500,1821
184.431000,1824
184.431500,1805
184.432000,1800
184.432500,1814
184.433000,1802
184.433500,1790
184.434000,1800
184.434500,1800
184.435000,1779
184.435500,1787
184.436000,1796
184.436500,1785
184.437000,1783
184.437500,1802
184.438000,1796
184.438500,1794
184.439000,1806
184.439500,1812
184.440000,1798
184.440500,1816
184.441000,1814
184.441500,1804
184.442000,1800
184.442500,1814
184.443000,1803
184.443500,1802
184.444000,1815
184.444500,1821
184.445000,1808
184.445500,1806
184.446000,1821
184.446500,1812
184.447000,1806
184.447500,1822
184.448000,1820
184.448500,1808
184.449000,1819
184.449500,1823
184.450000,1811
184.450500,1803
184.451000,1818
184.451500,1805
184.452000,1798
184.452500,1809
184.453000,1814
184.453500,1798
184.454000,1812
184.454500,1818
184.455000,1805
184.455500,1803
184.456000,1821
184.456500,1812
184.457000,1805
184.457500,1819
184.458000,1824
184.458500,1805
184.459000,1809
184.459500,1808
184.460000,1792
184.460500,1785
184.461000,1802
184.461500,1790
184.462000,1784
184.462500,1803
184.463000,1809
184.463500,1789
184.464000,1800
184.464500,1806
184.465000,1804
184.465500,1796
184.466000,1815
184.466500,1808
184.467000,1802
184.467500,1814
184.468000,1820
184.468500,1803
184.469000,1810
184.469500,1815
184.470000,1803
184.470500,1802
184.471000,1816
184.471500,1806
184.472000,1795
184.472500,1807
184.473000,1811
184.473500,1789
184.474000,1799
184.474500,1805
184.475000,1798
184.475500,1793
184.476000,1810
184.476500,1802
184.477000,1796
184.477500,1810
184.478000,1812
184.478500,1794
184.479000,1808
184.479500,1817
184.480000,1810
184.480500,1797
184.481000,1810
184.481500,1802
184.482000,1793
184.482500,1803
184.483000,1808
184.483500,1794
184.484000,1801
184.484500,1814
184.485000,1809
184.485500,1807
184.486000,1823
184.486500,1811
184.487000,1806
184.487500,1816
184.488000,1820
184.488500,1806
184.489000,1814
184.489500,1813
184.490000,1801
184.490500,1790
184.491000,1803
184.491500,1791
184.492000,1784
184.492500,1798
184.493000,1803
184.493500,1794
184.494000,1805
184.494500,1808
184.495000,1803
184.495500,1799
184.496000,1814
184.496500,1807
184.497000,1801
184.497500,1813
184.498000,1819
184.498500,1809
184.499000,1812
184.499500,1825
184.500000,1812
184.500500,1808
184.501000,1821
184.501500,1811
184.502000,1802
184.502500,1813
184.503000,1816
184.503500,1802
184.504000,1798
184.504500,1808
184.505000,1794
184.505500,1785
184.506000,1799
184.506500,1795
184.507000,1787
184.507500,1798
184.508000,1806
184.508500,1796
184.509000,1814
184.509500,1809
184.510000,1803
184.510500,1795
184.511000,1813
184.511500,1807
184.512000,1800
184.512500,1814
184.513000,1823
184.513500,1813
184.514000,1828
184.514500,1829
184.515000,1820
184.515500,1813
184.516000,1828
184.516500,1816
184.517000,1808
184.517500,1817
184.518000,1817
184.518500,1795
184.519000,1815
184.519500,1806
184.520000,1796
184.520500,1793
184.521000,1805
184.521500,1795
184.522000,1788
184.522500,1802
184.523000,1806
184.523500,1790
184.524000,1817
184.524500,1808
184.525000,1799
184.525500,1795
184.526000,1812
184.526500,1794
184.527000,1796
184.527500,1808
184.528000,1812
184.528500,1802
184.529000,1805
184.529500,1828
184.530000,1827
184.530500,1824
184.531000,1836
184.531500,1826
184.532000,1815
184.532500,1822
184.533000,1827
184.533500,1809
184.534000,1799
184.534500,1811
184.535000,1793
184.535500,1784
184.536000,1791
184.536500,1786
184.537000,1769
184.537500,1785
184.538000,1794
184.538500,1783
184.539000,1778
184.539500,1796
184.540000,1788
184.540500,1785
184.541000,1805
184.541500,1789
184.542000,1795
184.542500,1807
184.543000,1814
184.543500,1804
184.544000,1802
184.544500,1821
184.545000,1815
184.545500,1810
184.546000,1825
184.546500,1812
184.547000,1809
184.547500,1820
184.548000,1821
184.548500,1803
184.549000,1809
184.549500,1811
184.550000,1799
184.550500,1796
184.551000,1810
184.551500,1792
184.552000,1787
184.552500,1801
184.553000,1806
184.553500,1791
184.554000,1806
184.554500,1811
184.555000,1811
184.555500,1813
184.556000,1836
184.556500,1824
184.557000,1822
184.557500,1835
184.558000,1842
184.558500,1824
184.559000,1834
184.559500,1831
184.560000,1817
184.560500,1810
184.561000,1816
184.561500,1797
184.562000,1787
184.562500,1790
184.563000,1790
184.563500,1775
184.564000,1799
184.564500,1794
184.565000,1788
184.565500,1781
184.566000,1797
184.566500,1785
184.567000,1783
184.567500,1797
184.568000,1805
184.568500,1794
184.569000,1815
184.569500,1806
184.570000,1803
184.570500,1796
184.571000,1811
184.571500,1802
184.572000,1804
184.572500,1822
184.573000,1834
184.573500,1825
184.574000,1846
184.574500,1841
184.575000,1831
184.575500,1829
184.576000,1845
184.576500,1830
184.577000,1821
184.577500,1829
184.578000,1824
184.578500,1803
184.579000,1810
184.579500,1799
184.580000,1781
184.580500,1777
184.581000,1792
184.581500,1783
184.582000,1771
184.582500,1779
184.583000,1786
184.583500,1774
184.584000,1779
184.584500,1795
184.585000,1783
184.585500,1783
184.586000,1801
184.586500,1797
184.587000,1794
184.587500,1807
184.588000,1813
184.588500,1800
184.589000,1816
184.589500,1814
184.590000,1808
184.590500,1805
184.591000,1821
184.591500,1811
184.592000,1805
184.592500,1817
184.593000,1819
184.593500,1809
184.594000,1807
184.594500,1821
184.595000,1817
184.595500,1807
184.596000,1823
184.596500,1813
184.597000,1807
184.597500,1815
184.598000,1821
184.598500,1807
184.599000,1808
184.599500,1822
184.600000,1811
184.600500,1803
184.601000,1817
184.601500,1806
184.602000,1797
184.602500,1803
184.603000,1808
184.603500,1791
184.604000,1798
184.604500,1806
184.605000,1797
184.605500,1793
184.606000,1811
184.606500,1796
184.607000,1789
184.607500,1801
184.608000,1806
184.608500,1797
184.609000,1808
184.609500,1811
184.610000,1802
184.610500,1803
184.611000,1817
184.611500,1810
184.612000,1803
184.612500,1816
184.613000,1821
184.613500,1803
184.614000,1816
184.614500,1817
184.615000,1808
184.615500,1799
184.616000,1808
184.616500,1798
184.617000,1793
184.617500,1808
184.618000,1815
184.618500,1804
184.619000,1818
184.619500,1821
184.620000,1810
184.620500,1808
184.621000,1824
184.621500,1814
184.622000,1810
184.622500,1819
184.623000,1824
184.623500,1806
184.624000,1814
184.624500,1814
184.625000,1804
184.625500,1797
184.626000,1811
184.626500,1798
184.627000,1791
184.627500,1803
184.628000,1809
184.628500,1795
184.629000,1801
184.629500,1809
184.630000,1795
184.630500,1792
184.631000,1809
184.631500,1804
184.632000,1797
184.632500,1812
184.633000,1814
184.633500,1802
184.634000,1803
184.634500,1814
184.635000,1806
184.635500,1807
184.636000,1819
184.636500,1812
184.637000,1806
184.637500,1820
184.638000,1826
184.638500,1804
184.639000,1801
184.639500,1813
184.640000,1803
184.640500,1796
184.641000,1808
184.641500,1798
184.642000,1794
184.642500,1811
184.643000,1816
184.643500,1804
184.644000,1816
184.644500,1816
184.645000,1802
184.645500,1798
184.646000,1815
184.646500,1807
184.647000,1798
184.647500,1806
184.648000,1806
184.648500,1786
184.649000,1796
184.649500,1796
184.650000,1781
184.650500,1780
184.651000,1797
184.651500,1791
184.652000,1791
184.652500,1804
184.653000,1811
184.653500,1798
184.654000,1807
184.654500,1810
184.655000,1802
184.655500,1799
184.656000,1819
184.656500,1813
184.657000,1807
184.657500,1818
184.658000,1822
184.658500,1810
184.659000,1821
184.659500,1826
184.660000,1821
184.660500,1815
184.661000,1829
184.661500,1821
184.662000,1816
184.662500,1827
184.663000,1828
184.663500,1807
184.664000,1814
184.664500,1814
184.665000,1798
184.665500,1791
184.666000,1798
184.666500,1783
184.667000,1776
184.667500,1787
184.668000,1794
184.668500,1780
184.669000,1790
184.669500,1804
184.670000,1796
184.670500,1793
184.671000,1811
184.671500,1802
184.672000,1797
184.672500,1809
184.673000,1817
184.673500,1802
184.674000,1816
184.674500,1826
184.675000,1818
184.675500,1811
184.676000,1824
184.676500,1812
184.677000,1803
184.677500,1814
184.678000,1819
184.678500,1805
184.679000,1814
184.679500,1815
184.680000,1802
184.680500,1794
184.681000,1805
184.681500,1789
184.682000,1785
184.682500,1797
184.683000,1803
184.683500,1792
184.684000,1800
184.684500,1808
184.685000,1799
184.685500,1793
184.686000,1810
184.686500,1802
184.687000,1796
184.687500,1808
184.688000,1816
184.688500,1803
184.689000,1806
184.689500,1819
184.690000,1808
184.690500,1802
184.691000,1819
184.691500,1809
184.692000,1802
184.692500,1811
184.693000,1816
184.693500,1804
184.694000,1805
184.694500,1821
184.695000,1808
184.695500,1809
184.696000,1828
184.696500,1824
184.697000,1814
184.697500,1821
184.698000,1826
184.698500,1807
184.699000,1803
184.699500,1813
184.700000,1800
184.700500,1793
184.701000,1808
184.701500,1794
184.702000,1785
184.702500,1799
184.703000,1807
184.703500,1791
184.704000,1792
184.704500,1806
184.705000,1792
184.705500,1789
184.706000,1805
184.706500,1801
184.707000,1795
184.707500,1809
184.708000,1817
184.708500,1807
184.709000,1822
184.709500,1824
184.710000,1815
184.710500,1811
184.711000,1824
184.711500,1819
184.712000,1812
184.712500,1821
184.713000,1822
184.713500,1806
184.714000,1802
184.714500,1807
184.715000,1794
184.715500,1790
184.716000,1805
184.716500,1793
184.717000,1784
184.717500,1794
184.718000,1803
184.718500,1786
184.719000,1798
184.719500,1802
184.720000,1796
184.720500,1789
184.721000,1813
184.721500,1811
184.722000,1811
184.722500,1829
184.723000,1830
184.723500,1810
184.724000,1819
184.724500,1823
184.725000,1818
184.725500,1805
184.726000,1818
184.726500,1802
184.727000,1799
184.727500,1813
184.728000,1817
184.728500,1803
184.729000,1800
184.729500,1817
184.730000,1807
184.730500,1803
184.731000,1813
184.731500,1812
184.732000,1790
184.732500,1801
184.733000,1803
184.733500,1787
184.734000,1782
184.734500,1797
184.735000,1787
184.735500,1782
184.736000,1797
184.736500,1804
184.737000,1790
184.737500,1801
184.738000,1809
184.738500,1798
184.739000,1796
184.739500,1815
184.740000,1811
184.740500,1806
184.741000,1824
184.741500,1835
184.742000,1823
184.742500,1830
184.743000,1833
184.743500,1820
184.744000,1812
184.744500,1824
184.745000,1816
184.745500,1804
184.746000,1813
184.746500,1813
184.747000,1794
184.747500,1796
184.748000,1792
184.748500,1782
184.749000,1777
184.749500,1793
184.750000,1787
184.750500,1784
184.751000,1798
184.751500,1800
184.752000,1787
184.752500,1789
184.753000,1807
184.753500,1797
184.754000,1794
184.754500,1813
184.755000,1806
184.755500,1798
184.756000,1810
184.756500,1816
184.757000,1805
184.757500,1823
184.758000,1817
184.758500,1803
184.759000,1799
184.759500,1815
184.760000,1807
184.760500,1804
184.761000,1812
184.761500,1819
184.762000,1802
184.762500,1808
184.763000,1818
184.763500,1810
184.764000,1805
184.764500,1819
184.765000,1803
184.765500,1804
184.766000,1813
184.766500,1817
184.767000,1798
184.767500,1793
184.768000,1809
184.768500,1800
184.769000,1791
184.769500,1803
184.770000,1811
184.770500,1794
184.771000,1805
184.771500,1812
184.772000,1797
184.772500,1795
184.773000,1810
184.773500,1804
184.774000,1798
184.774500,1808
184.775000,1815
184.775500,1800
184.776000,1815
184.776500,1820
184.777000,1807
184.777500,1804
184.778000,1821
184.778500,1809
184.779000,1804
184.779500,1818
184.780000,1824
184.780500,1807
184.781000,1816
184.781500,1818
184.782000,1803
184.782500,1796
184.783000,1811
184.783500,1802
184.784000,1794
184.784500,1806
184.785000,1811
184.785500,1795
184.786000,1809
184.786500,1818
184.787000,1812
184.787500,1814
184.788000,1834
184.788500,1832
184.789000,1825
184.789500,1834
184.790000,1838
184.790500,1814
184.791000,1821
184.791500,1819
184.792000,1804
184.792500,1793
184.793000,1802
184.793500,1789
184.794000,1775
184.794500,1781
184.795000,1783
184.795500,1771
184.796000,1779
184.796500,1794
184.797000,1789
184.797500,1790
184.798000,1812
184.798500,1811
184.799000,1806
184.799500,1819
184.800000,1829
184.800500,1811
184.801000,1829
184.801500,1820
184.802000,1806
184.802500,1795
184.803000,1807
184.803500,1793
184.804000,1786
184.804500,1795
184.805000,1805
184.805500,1791
184.806000,1790
184.806500,1806
184.807000,1797
184.807500,1795
184.808000,1809
184.808500,1817
184.809000,1803
184.809500,1815
184.810000,1822
184.810500,1804
184.811000,1795
184.811500,1809
184.812000,1801
184.812500,1800
184.813000,1813
184.813500,1817
184.814000,1799
184.814500,1810
184.815000,1814
184.815500,1799
184.816000,1793
184.816500,1807
184.817000,1801
184.817500,1793
184.818000,1803
184.818500,1812
184.819000,1797
184.819500,1806
184.820000,1813
184.820500,1800
184.821000,1796
184.821500,1817
184.822000,1815
184.822500,1809
184.823000,1820
184.823500,1829
184.824000,1815
184.824500,1811
184.825000,1828
184.825500,1815
184.826000,1811
184.826500,1819
184.827000,1811
184.827500,1800
184.828000,1807
184.828500,1806
184.829000,1787
184.829500,1796
184.830000,1802
184.830500,1793
184.831000,1790
184.831500,1806
184.832000,1801
184.832500,1801
184.833000,1814
184.833500,1820
184.834000,1810
184.834500,1806
184.835000,1827
184.835500,1814
184.836000,1811
184.836500,1822
184.837000,1828
184.837500,1806
184.838000,1812
184.838500,1811
184.839000,1793
184.839500,1786
184.840000,1804
184.840500,1795
184.841000,1795
184.841500,1807
184.842000,1810
184.842500,1794
184.843000,1803
184.843500,1811
184.844000,1798
184.844500,1793
184.845000,1809
184.845500,1799
184.846000,1792
184.846500,1804
184.847000,1808
184.847500,1790
184.848000,1804
184.848500,1812
184.849000,1806
184.849500,1807
184.850000,1831
184.850500,1818
184.851000,1810
184.851500,1823
184.852000,1824
184.852500,1805
184.853000,1808
184.853500,1810
184.854000,1793
184.854500,1783
184.855000,1805
184.855500,1791
184.856000,1781
184.856500,1793
184.857000,1797
184.857500,1786
184.858000,1801
184.858500,1807
184.859000,1798
184.859500,1798
184.860000,1812
184.860500,1810
184.861000,1801
184.861500,1809
184.862000,1816
184.862500,1802
184.863000,1824
184.863500,1816
184.864000,1806
184.864500,1800
184.865000,1816
184.865500,1808
184.866000,1801
184.866500,1808
184.867000,1814
184.867500,1798
184.868000,1792
184.868500,1811
184.869000,1798
184.869500,1798
184.870000,1811
184.870500,1820
184.871000,1800
184.871500,1812
184.872000,1813
184.872500,1801
184.873000,1796
184.873500,1813
184.874000,1805
184.874500,1800
184.875000,1817
184.875500,1818
184.876000,1804
184.876500,1808
184.877000,1814
184.877500,1801
184.878000,1794
184.878500,1806
184.879000,1799
184.879500,1789
184.880000,1800
184.880500,1815
184.881000,1802
184.881500,1812
184.882000,1813
184.882500,1800
184.883000,1800
184.883500,1819
184.884000,1818
184.884500,1816
184.885000,1833
184.885500,1837
184.886000,1822
184.886500,1820
184.887000,1832
184.887500,1816
184.888000,1806
184.888500,1813
184.889000,1806
184.889500,1787
184.890000,1794
184.890500,1799
184.891000,1783
184.891500,1787
184.892000,1794
184.892500,1783
184.893000,1780
184.893500,1795
184.894000,1786
184.894500,1786
184.895000,1805
184.895500,1811
184.896000,1796
184.896500,1813
184.897000,1808
184.897500,1800
184.898000,1798
184.898500,1814
184.899000,1805
184.899500,1808
184.900000,1821
184.900500,1826
184.901000,1814
184.901500,1805
184.902000,1822
184.902500,1811
184.903000,1807
184.903500,1818
184.904000,1809
184.904500,1803
184.905000,1813
184.905500,1816
184.906000,1799
184.906500,1790
184.907000,1809
184.907500,1805
184.908000,1803
184.908500,1817
184.909000,1822
184.909500,1805
184.910000,1818
184.910500,1823
184.911000,1810
184.911500,1799
184.912000,1815
184.912500,1803
184.913000,1793
184.913500,1801
184.914000,1800
184.914500,1788
184.915000,1799
184.915500,1807
184.916000,1801
184.916500,1797
184.917000,1810
184.917500,1803
184.918000,1798
184.918500,1810
184.919000,1816
184.919500,1801
184.920000,1811
184.920500,1814
184.921000,1806
184.921500,1796
184.922000,1813
184.922500,1803
184.923000,1799
184.923500,1813
184.924000,1823
184.924500,1805
184.925000,1813
184.925500,1821
184.926000,1809
184.926500,1798
184.927000,1813
184.927500,1804
184.928000,1797
184.928500,1805
184.929000,1814
184.929500,1798
184.930000,1813
184.930500,1810
184.931000,1799
184.931500,1795
184.932000,1809
184.932500,1804
184.933000,1800
184.933500,1809
184.934000,1811
184.934500,1793
184.935000,1801
184.935500,1808
184.936000,1797
184.936500,1791
184.937000,1810
184.937500,1805
184.938000,1796
184.938500,1811
184.939000,1812
184.939500,1798
184.940000,1804
184.940500,1812
184.941000,1800
184.941500,1794
184.942000,1807
184.942500,1807
184.943000,1798
184.943500,1809
184.944000,1814
184.944500,1797
184.945000,1814
184.945500,1817
184.946000,1805
184.946500,1800
184.947000,1818
184.947500,1809
184.948000,1809
184.948500,1822
184.949000,1829
184.949500,1816
184.950000,1838
184.950500,1825
184.951000,1810
184.951500,1800
184.952000,1810
184.952500,1797
184.953000,1786
184.953500,1796
184.954000,1800
184.954500,1791
184.955000,1786
184.955500,1809
184.956000,1799
184.956500,1791
184.957000,1805
184.957500,1814
184.958000,1796
184.958500,1808
184.959000,1815
184.959500,1801
184.960000,1800
184.960500,1815
184.961000,1806
184.961500,1799
184.962000,1813
184.962500,1819
184.963000,1800
184.963500,1817
184.964000,1823
184.964500,1810
184.965000,1808
184.965500,1822
184.966000,1811
184.966500,1802
184.967000,1815
184.967500,1817
184.968000,1798
184.968500,1807
184.969000,1811
184.969500,1797
184.970000,1791
184.970500,1805
184.971000,1796
184.971500,1789
184.972000,1800
184.972500,1802
184.973000,1789
184.973500,1804
184.974000,1811
184.974500,1800
184.975000,1795
184.975500,1815
184.976000,1809
184.976500,1803
184.977000,1814
184.977500,1823
184.978000,1808
184.978500,1811
184.979000,1820
184.979500,1808
184.980000,1804
184.980500,1817
184.981000,1804
184.981500,1802
184.982000,1811
184.982500,1815
184.983000,1801
184.983500,1814
184.984000,1814
184.984500,1804
184.985000,1810
184.985500,1821
184.986000,1817
184.986500,1802
184.987000,1814
184.987500,1816
184.988000,1799
184.988500,1796
184.989000,1811
184.989500,1800
184.990000,1791
184.990500,1807
184.991000,1812
184.991500,1785
184.992000,1797
184.992500,1801
184.993000,1791
184.993500,1788
184.994000,1808
184.994500,1800
184.995000,1794
184.995500,1813
184.996000,1821
184.996500,1808
184.997000,1821
184.997500,1829
184.998000,1816
184.998500,1814
184.999000,1828
184.999500,1818
185.000000,1809
185.000500,1816
185.001000,1820
185.001500,1798
185.002000,1807
185.002500,1809
185.003000,1798
185.003500,1793
185.004000,1804
185.004500,1796
185.005000,1795
185.005500,1805
185.006000,1808
185.006500,1796
185.007000,1808
185.007500,1810
185.008000,1798
185.008500,1791
185.009000,1805
185.009500,1797
185.010000,1791
185.010500,1810
185.011000,1818
185.011500,1799
185.012000,1805
185.012500,1809
185.013000,1793
185.013500,1786
185.014000,1806
185.014500,1801
185.015000,1796
185.015500,1812
185.016000,1815
185.016500,1798
185.017000,1798
185.017500,1813
185.018000,1802
185.018500,1797
185.019000,1814
185.019500,1809
185.020000,1802
185.020500,1815
185.021000,1821
185.021500,1807
185.022000,1808
185.022500,1819
185.023000,1809
185.023500,1804
185.024000,1816
185.024500,1807
185.025000,1800
185.025500,1813
185.026000,1813
185.026500,1790
185.027000,1812
185.027500,1802
185.028000,1795
185.028500,1792
185.029000,1810
185.029500,1796
185.030000,1793
185.030500,1806
185.031000,1812
185.031500,1796
185.032000,1794
185.032500,1810
185.033000,1800
185.033500,1799
185.034000,1814
185.034500,1821
185.035000,1806
185.035500,1821
185.036000,1826
185.036500,1811
185.037000,1806
185.037500,1822
185.038000,1809
185.038500,1803
185.039000,1813
185.039500,1819
185.040000,1809
185.040500,1811
185.041000,1817
185.041500,1801
185.042000,1797
185.042500,1812
185.043000,1805
185.043500,1797
185.044000,1810
185.044500,1811
185.045000,1798
185.045500,1812
185.046000,1826
185.046500,1819
185.047000,1818
185.047500,1830
185.048000,1817
185.048500,1810
185.049000,1820
185.049500,1823
185.050000,1808
185.050500,1811
185.051000,1809
185.051500,1790
185.052000,1778
185.052500,1788
185.053000,1777
185.053500,1771
185.054000,1786
185.054500,1794
185.055000,1785
185.055500,1794
185.056000,1799
185.056500,1791
185.057000,1790
185.057500,1807
185.058000,1801
185.058500,1796
185.059000,1811
185.059500,1818
185.060000,1804
185.060500,1806
185.061000,1819
185.061500,1805
185.062000,1801
185.062500,1814
185.063000,1805
185.063500,1799
185.064000,1810
185.064500,1817
185.065000,1805
185.065500,1820
185.066000,1821
185.066500,1812
185.067000,1809
185.067500,1826
185.068000,1814
185.068500,1811
185.069000,1822
185.069500,1827
185.070000,1807
185.070500,1799
185.071000,1813
185.071500,1797
185.072000,1789
185.072500,1799
185.073000,1803
185.073500,1783
185.074000,1796
185.074500,1801
185.075000,1794
185.075500,1793
185.076000,1813
185.076500,1798
185.077000,1796
185.077500,1808
185.078000,1818
185.078500,1802
185.079000,1813
185.079500,1818
185.080000,1811
185.080500,1810
185.081000,1825
185.081500,1815
185.082000,1809
185.082500,1821
185.083000,1826
185.083500,1811
185.084000,1822
185.084500,1825
185.085000,1815
185.085500,1809
185.086000,1816
185.086500,1805
185.087000,1797
185.087500,1805
185.088000,1809
185.088500,1791
185.089000,1802
185.089500,1808
185.090000,1796
185.090500,1786
185.091000,1800
185.091500,1791
185.092000,1785
185.092500,1796
185.093000,1802
185.093500,1784
185.094000,1795
185.094500,1806
185.095000,1800
185.095500,1796
185.096000,1814
185.096500,1804
185.097000,1798
185.097500,1811
185.098000,1816
185.098500,1799
185.099000,1812
185.099500,1815
185.100000,1811
185.100500,1804
185.101000,1823
185.101500,1815
185.102000,1813
185.102500,1825
185.103000,1827
185.103500,1807
185.104000,1817
185.104500,1819
185.105000,1806
185.105500,1795
185.106000,1810
185.106500,1799
185.107000,1792
185.107500,1804
185.108000,1810
185.108500,1793
185.109000,1805
185.109500,1813
185.110000,1803
185.110500,1797
185.111000,1812
185.111500,1799
185.112000,1794
185.112500,1808
185.113000,1813
185.113500,1792
185.114000,1805
185.114500,1815
185.115000,1801
185.115500,1796
185.116000,1813
185.116500,1798
185.117000,1794
185.117500,1807
185.118000,1796
185.118500,1792
185.119000,1800
185.119500,1809
185.120000,1794
185.120500,1796
185.121000,1809
185.121500,1800
185.122000,1795
185.122500,1809
185.123000,1815
185.123500,1794
185.124000,1804
185.124500,1813
185.125000,1806
185.125500,1798
185.126000,1818
185.126500,1809
185.127000,1803
185.127500,1818
185.128000,1821
185.128500,1803
185.129000,1815
185.129500,1822
185.130000,1806
185.130500,1803
185.131000,1819
185.131500,1804
185.132000,1796
185.132500,1805
185.133000,1804
185.133500,1781
185.134000,1795
185.134500,1803
185.135000,1794
185.135500,1793
185.136000,1810
185.136500,1805
185.137000,1801
185.137500,1815
185.138000,1822
185.138500,1802
185.139000,1814
185.139500,1816
185.140000,1807
185.140500,1802
185.141000,1816
185.141500,1802
185.142000,1795
185.142500,1811
185.143000,1815
185.143500,1795
185.144000,1809
185.144500,1816
185.145000,1804
185.145500,1803
185.146000,1819
185.146500,1804
185.147000,1800
185.147500,1813
185.148000,1819
185.148500,1801
185.149000,1806
185.149500,1814
185.150000,1802
185.150500,1800
185.151000,1817
185.151500,1810
185.152000,1806
185.152500,1819
185.153000,1822
185.153500,1805
185.154000,1810
185.154500,1809
185.155000,1797
185.155500,1786
185.156000,1802
185.156500,1794
185.157000,1787
185.157500,1802
185.158000,1809
185.158500,1793
185.159000,1802
185.159500,1809
185.160000,1799
185.160500,1795
185.161000,1813
185.161500,1802
185.162000,1796
185.162500,1810
185.163000,1816
185.163500,1807
185.164000,1825
185.164500,1836
185.165000,1824
185.165500,1825
185.166000,1839
185.166500,1822
185.167000,1813
185.167500,1822
185.168000,1823
185.168500,1797
185.169000,1802
185.169500,1801
185.170000,1783
185.170500,1780
185.171000,1798
185.171500,1786
185.172000,1780
185.172500,1795
185.173000,1804
185.173500,1787
185.174000,1799
185.174500,1805
185.175000,1795
185.175500,1793
185.176000,1812
185.176500,1802
185.177000,1796
185.177500,1809
185.178000,1812
185.178500,1791
185.179000,1801
185.179500,1809
185.180000,1804
185.180500,1796
185.181000,1813
185.181500,1804
185.182000,1799
185.182500,1810
185.183000,1814
185.183500,1798
185.184000,1811
185.184500,1815
185.185000,1813
185.185500,1813
185.186000,1830
185.186500,1822
185.187000,1817
185.187500,1829
185.188000,1832
185.188500,1811
185.189000,1820
185.189500,1821
185.190000,1810
185.190500,1803
185.191000,1813
185.191500,1800
185.192000,1785
185.192500,1795
185.193000,1802
185.193500,1789
185.194000,1801
185.194500,1808
185.195000,1799
185.195500,1789
185.196000,1801
185.196500,1793
185.197000,1788
185.197500,1804
185.198000,1810
185.198500,1798
185.199000,1813
185.199500,1816
185.200000,1812
185.200500,1803
185.201000,1822
185.201500,1818
185.202000,1813
185.202500,1826
185.203000,1829
185.203500,1816
185.204000,1820
185.204500,1831
185.205000,1817
185.205500,1809
185.206000,1819
185.206500,1806
185.207000,1797
185.207500,1804
185.208000,1805
185.208500,1787
185.209000,1790
185.209500,1799
185.210000,1788
185.210500,1782
185.211000,1799
185.211500,1795
185.212000,1788
185.212500,1803
185.213000,1809
185.213500,1792
185.214000,1792
185.214500,1805
185.215000,1793
185.215500,1793
185.216000,1814
185.216500,1815
185.217000,1808
185.217500,1820
185.218000,1822
185.218500,1806
185.219000,1804
185.219500,1818
185.220000,1806
185.220500,1802
185.221000,1815
185.221500,1807
185.222000,1794
185.222500,1802
185.223000,1806
185.223500,1790
185.224000,1790
185.224500,1805
185.225000,1794
185.225500,1792
185.226000,1808
185.226500,1805
185.227000,1799
185.227500,1814
185.228000,1821
185.228500,1805
185.229000,1808
185.229500,1823
185.230000,1819
185.230500,1809
185.231000,1825
185.231500,1817
185.232000,1807
185.232500,1817
185.233000,1819
185.233500,1802
185.234000,1809
185.234500,1813
185.235000,1802
185.235500,1793
185.236000,1807
185.236500,1794
185.237000,1789
185.237500,1804
185.238000,1812
185.238500,1802
185.239000,1813
185.239500,1818
185.240000,1804
185.240500,1798
185.241000,1816
185.241500,1806
185.242000,1801
185.242500,1812
185.243000,1816
185.243500,1798
185.244000,1808
185.244500,1810
185.245000,1801
185.245500,1791
185.246000,1809
185.246500,1801
185.247000,1794
185.247500,1805
185.248000,1808
185.248500,1789
185.249000,1796
185.249500,1800
185.250000,1791
185.250500,1792
185.251000,1810
185.251500,1803
185.252000,1805
185.252500,1815
185.253000,1820
185.253500,1803
185.254000,1816
185.254500,1819
185.255000,1811
185.255500,1806
185.256000,1823
185.256500,1820
185.257000,1815
185.257500,1831
185.258000,1836
185.258500,1823
185.259000,1824
185.259500,1829
185.260000,1811
185.260500,1806
185.261000,1820
185.261500,1809
185.262000,1795
185.262500,1796
185.263000,1798
185.263500,1780
185.264000,1781
185.264500,1793
185.265000,1781
185.265500,1774
185.266000,1791
185.266500,1784
185.267000,1778
185.267500,1797
185.268000,1805
185.268500,1793
185.269000,1799
185.269500,1811
185.270000,1804
185.270500,1799
185.271000,1817
185.271500,1806
185.272000,1801
185.272500,1815
185.273000,1821
185.273500,1806
185.274000,1818
185.274500,1821
185.275000,1813
185.275500,1806
185.276000,1822
185.276500,1814
185.277000,1806
185.277500,1816
185.278000,1822
185.278500,1805
185.279000,1812
185.279500,1813
185.280000,1799
185.280500,1790
185.281000,1802
185.281500,1791
185.282000,1789
185.282500,1799
185.283000,1804
185.283500,1789
185.284000,1802
185.284500,1811
185.285000,1804
185.285500,1802
185.286000,1814
185.286500,1808
185.287000,1801
185.287500,1813
185.288000,1817
185.288500,1804
185.289000,1820
185.289500,1828
185.290000,1828
185.290500,1826
185.291000,1842
185.291500,1833
185.292000,1825
185.292500,1832
185.293000,1832
185.293500,1813
185.294000,1809
185.294500,1813
185.295000,1794
185.295500,1787
185.296000,1796
185.296500,1779
185.297000,1767
185.297500,1776
185.298000,1785
185.298500,1776
185.299000,1792
185.299500,1801
185.300000,1794
185.300500,1790
185.301000,1809
185.301500,1802
185.302000,1795
185.302500,1808
185.303000,1812
185.303500,1798
185.304000,1818
185.304500,1813
185.305000,1809
185.305500,1804
185.306000,1822
185.306500,1811
185.307000,1813
185.307500,1822
185.308000,1829
185.308500,1811
185.309000,1804
185.309500,1818
185.310000,1806
185.310500,1801
185.311000,1815
185.311500,1816
185.312000,1795
185.312500,1801
185.313000,1805
185.313500,1790
185.314000,1788
185.314500,1806
185.315000,1800
185.315500,1797
185.316000,1808
185.316500,1809
185.317000,1791
185.317500,1804
185.318000,1812
185.318500,1804
185.319000,1802
185.319500,1820
185.320000,1817
185.320500,1813
185.321000,1826
185.321500,1826
185.322000,1813
185.322500,1819
185.323000,1821
185.323500,1806
185.324000,1798
185.324500,1812
185.325000,1801
185.325500,1794
185.326000,1806
185.326500,1808
185.327000,1789
185.327500,1800
185.328000,1803
185.328500,1789
185.329000,1783
185.329500,1802
185.330000,1794
185.330500,1792
185.331000,1807
185.331500,1810
185.332000,1798
185.332500,1812
185.333000,1818
185.333500,1803
185.334000,1801
185.334500,1818
185.335000,1808
185.335500,1802
185.336000,1815
185.336500,1818
185.337000,1799
185.337500,1810
185.338000,1813
185.338500,1801
185.339000,1794
185.339500,1809
185.340000,1806
185.340500,1800
185.341000,1816
185.341500,1820
185.342000,1805
185.342500,1818
185.343000,1821
185.343500,1813
185.344000,1810
185.344500,1823
185.345000,1815
185.345500,1807
185.346000,1818
185.346500,1813
185.347000,1791
185.347500,1802
185.348000,1801
185.348500,1788
185.349000,1783
185.349500,1799
185.350000,1802
185.350500,1793
185.351000,1807
185.351500,1811
185.352000,1798
185.352500,1803
185.353000,1813
185.353500,1805
185.354000,1801
185.354500,1822
185.355000,1822
185.355500,1814
185.356000,1828
185.356500,1827
185.357000,1812
185.357500,1808
185.358000,1816
185.358500,1802
185.359000,1795
185.359500,1807
185.360000,1802
185.360500,1796
185.361000,1804
185.361500,1806
185.362000,1789
185.362500,1788
185.363000,1798
185.363500,1788
185.364000,1787
185.364500,1803
185.365000,1804
185.365500,1793
185.366000,1806
185.366500,1809
185.367000,1797
185.367500,1805
185.368000,1814
185.368500,1804
185.369000,1803
185.369500,1823
185.370000,1816
185.370500,1816
185.371000,1831
185.371500,1839
185.372000,1823
185.372500,1835
185.373000,1832
185.373500,1820
185.374000,1815
185.374500,1824
185.375000,1807
185.375500,1799
185.376000,1805
185.376500,1805
185.377000,1782
185.377500,1779
185.378000,1790
185.378500,1778
185.379000,1775
185.379500,1790
185.380000,1801
185.380500,1780
185.381000,1792
185.381500,1806
185.382000,1800
185.382500,1800
185.383000,1822
185.383500,1812
185.384000,1806
185.384500,1819
185.385000,1828
185.385500,1808
185.386000,1815
185.386500,1818
185.387000,1802
185.387500,1792
185.388000,1802
185.388500,1789
185.389000,1783
185.389500,1802
185.390000,1812
185.390500,1796
185.391000,1807
185.391500,1812
185.392000,1796
185.392500,1792
185.393000,1810
185.393500,1806
185.394000,1802
185.394500,1812
185.395000,1821
185.395500,1803
185.396000,1812
185.396500,1817
185.397000,1804
185.397500,1798
185.398000,1811
185.398500,1803
185.399000,1796
185.399500,1811
185.400000,1821
185.400500,1802
185.401000,1811
185.401500,1812
185.402000,1802
185.402500,1797
185.403000,1811
185.403500,1812
185.404000,1809
185.404500,1824
185.405000,1833
185.405500,1814
185.406000,1819
185.406500,1825
185.407000,1811
185.407500,1803
185.408000,1816
185.408500,1812
185.409000,1805
185.409500,1816
185.410000,1824
185.410500,1811
185.411000,1812
185.411500,1823
185.412000,1811
185.412500,1806
185.413000,1819
185.413500,1812
185.414000,1797
185.414500,1803
185.415000,1807
185.415500,1785
185.416000,1802
185.416500,1793
185.417000,1778
185.417500,1776
185.418000,1794
185.418500,1784
185.419000,1789
185.419500,1803
185.420000,1819
185.420500,1802
185.421000,1815
185.421500,1814
185.422000,1806
185.422500,1803
185.423000,1817
185.423500,1825
185.424000,1804
185.424500,1815
185.425000,1821
185.425500,1806
185.426000,1799
185.426500,1811
185.427000,1795
185.427500,1789
185.428000,1798
185.428500,1806
185.429000,1784
185.429500,1797
185.430000,1808
185.430500,1794
185.431000,1793
185.431500,1809
185.432000,1802
185.432500,1800
185.433000,1815
185.433500,1802
185.434000,1806
185.434500,1816
185.435000,1820
185.435500,1807
185.436000,1800
185.436500,1813
185.437000,1804
185.437500,1798
185.438000,1811
185.438500,1816
185.439000,1795
185.439500,1804
185.440000,1810
185.440500,1798
185.441000,1794
185.441500,1808
185.442000,1798
185.442500,1794
185.443000,1806
185.443500,1811
185.444000,1791
185.444500,1807
185.445000,1817
185.445500,1806
185.446000,1816
185.446500,1828
185.447000,1816
185.447500,1810
185.448000,1822
185.448500,1808
185.449000,1807
185.449500,1819
185.450000,1822
185.450500,1809
185.451000,1798
185.451500,1811
185.452000,1800
185.452500,1788
185.453000,1800
185.453500,1786
185.454000,1792
185.454500,1803
185.455000,1817
185.455500,1799
185.456000,1794
185.456500,1811
185.457000,1800
185.457500,1798
185.458000,1812
185.458500,1821
185.459000,1802
185.459500,1812
185.460000,1817
185.460500,1807
185.461000,1803
185.461500,1818
185.462000,1809
185.462500,1804
185.463000,1818
185.463500,1806
185.464000,1808
185.464500,1818
185.465000,1827
185.465500,1808
185.466000,1806
185.466500,1819
185.467000,1809
185.467500,1801
185.468000,1811
185.468500,1800
185.469000,1796
185.469500,1811
185.470000,1815
185.470500,1801
185.471000,1820
185.471500,1811
185.472000,1796
185.472500,1790
185.473000,1806
185.473500,1800
185.474000,1796
185.474500,1808
185.475000,1821
185.475500,1801
185.476000,1819
185.476500,1805
185.477000,1793
185.477500,1788
185.478000,1803
185.478500,1794
185.479000,1791
185.479500,1802
185.480000,1809
185.480500,1791
185.481000,1812
185.481500,1808
185.482000,1797
185.482500,1796
185.483000,1813
185.483500,1803
185.484000,1799
185.484500,1811
185.485000,1831
185.485500,1816
185.486000,1842
185.486500,1833
185.487000,1818
185.487500,1810
185.488000,1820
185.488500,1806
185.489000,1801
185.489500,1809
185.490000,1814
185.490500,1803
185.491000,1816
185.491500,1807
185.492000,1791
185.492500,1783
185.493000,1797
185.493500,1789
185.494000,1786
185.494500,1799
185.495000,1807
185.495500,1797
185.496000,1816
185.496500,1810
185.497000,1802
185.497500,1802
185.498000,1819
185.498500,1811
185.499000,1813
185.499500,1824
185.500000,1833
185.500500,1814
185.501000,1832
185.501500,1820
185.502000,1803
185.502500,1797
185.503000,1811
185.503500,1798
185.504000,1786
185.504500,1795
185.505000,1805
185.505500,1790
185.506000,1811
185.506500,1799
185.507000,1790
185.507500,1784
185.508000,1802
185.508500,1785
185.509000,1790
185.509500,1805
185.510000,1816
185.510500,1808
185.511000,1807
185.511500,1828
185.512000,1819
185.512500,1815
185.513000,1831
185.513500,1837
185.514000,1815
185.514500,1823
185.515000,1822
185.515500,1802
185.516000,1792
185.516500,1802
185.517000,1792
185.517500,1788
185.518000,1802
185.518500,1806
185.519000,1783
185.519500,1794
185.520000,1803
185.520500,1791
185.521000,1791
185.521500,1816
185.522000,1815
185.522500,1815
185.523000,1830
185.523500,1832
185.524000,1811
185.524500,1824
185.525000,1829
185.525500,1810
185.526000,1803
185.526500,1810
185.527000,1800
185.527500,1790
185.528000,1800
185.528500,1798
185.529000,1778
185.529500,1787
185.530000,1799
185.530500,1787
185.531000,1789
185.531500,1805
185.532000,1795
185.532500,1792
185.533000,1805
185.533500,1810
185.534000,1795
185.534500,1802
185.535000,1815
185.535500,1804
185.536000,1798
185.536500,1814
185.537000,1805
185.537500,1801
185.538000,1815
185.538500,1827
185.539000,1816
185.539500,1826
185.540000,1834
185.540500,1820
185.541000,1813
185.541500,1826
185.542000,1815
185.542500,1810
185.543000,1818
185.543500,1817
185.544000,1798
185.544500,1803
185.545000,1806
185.545500,1793
185.546000,1789
185.546500,1808
185.547000,1800
185.547500,1796
185.548000,1808
185.548500,1814
185.549000,1797
185.549500,1811
185.550000,1816
185.550500,1802
185.551000,1801
185.551500,1817
185.552000,1804
185.552500,1797
185.553000,1806
185.553500,1815
185.554000,1799
185.554500,1809
185.555000,1814
185.555500,1803
185.556000,1801
185.556500,1813
185.557000,1805
185.557500,1797
185.558000,1812
185.558500,1818
185.559000,1802
185.559500,1812
185.560000,1815
185.560500,1805
185.561000,1801
185.561500,1812
185.562000,1803
185.562500,1795
185.563000,1807
185.563500,1808
185.564000,1787
185.564500,1805
185.565000,1811
185.565500,1804
185.566000,1802
185.566500,1822
185.567000,1810
185.567500,1806
185.568000,1821
185.568500,1825
185.569000,1807
185.569500,1816
185.570000,1817
185.570500,1806
185.571000,1793
185.571500,1803
185.572000,1792
185.572500,1787
185.573000,1800
185.573500,1798
185.574000,1794
185.574500,1804
185.575000,1812
185.575500,1801
185.576000,1800
185.576500,1812
185.577000,1802
185.577500,1798
185.578000,1814
185.578500,1802
185.579000,1801
185.579500,1812
185.580000,1817
185.580500,1807
185.581000,1802
185.581500,1814
185.582000,1806
185.582500,1802
185.583000,1809
185.583500,1816
185.584000,1798
185.584500,1809
185.585000,1816
185.585500,1800
185.586000,1795
185.586500,1811
185.587000,1802
185.587500,1800
185.588000,1812
185.588500,1815
185.589000,1798
185.589500,1814
185.590000,1822
185.590500,1814
185.591000,1809
185.591500,1820
185.592000,1810
185.592500,1803
185.593000,1816
185.593500,1822
185.594000,1801
185.594500,1810
185.595000,1814
185.595500,1799
185.596000,1789
185.596500,1800
185.597000,1786
185.597500,1781
185.598000,1799
185.598500,1810
185.599000,1795
185.599500,1807
185.600000,1815
185.600500,1802
185.601000,1797
185.601500,1814
185.602000,1807
185.602500,1799
185.603000,1814
185.603500,1818
185.604000,1804
185.604500,1808
185.605000,1819
185.605500,1804
185.606000,1802
185.606500,1814
185.607000,1802
185.607500,1798
185.608000,1810
185.608500,1815
185.609000,1796
185.609500,1807
185.610000,1819
185.610500,1801
185.611000,1799
185.611500,1812
185.612000,1801
185.612500,1792
185.613000,1804
185.613500,1808
185.614000,1787
185.614500,1796
185.615000,1802
185.615500,1796
185.616000,1795
185.616500,1810
185.617000,1804
185.617500,1797
185.618000,1812
185.618500,1816
185.619000,1801
185.619500,1813
185.620000,1815
185.620500,1805
185.621000,1796
185.621500,1808
185.622000,1805
185.622500,1800
185.623000,1816
185.623500,1820
185.624000,1805
185.624500,1817
185.625000,1826
185.625500,1814
185.626000,1807
185.626500,1819
185.627000,1809
185.627500,1803
185.628000,1815
185.628500,1816
185.629000,1796
185.629500,1804
185.630000,1808
185.630500,1787
185.631000,1779
185.631500,1793
185.632000,1788
185.632500,1786
185.633000,1801
185.633500,1806
185.634000,1792
185.634500,1797
185.635000,1806
185.635500,1799
185.636000,1796
185.636500,1814
185.637000,1809
185.637500,1798
185.638000,1809
185.638500,1817
185.639000,1805
185.639500,1813
185.640000,1824
185.640500,1812
185.641000,1813
185.641500,1830
185.642000,1831
185.642500,1831
185.643000,1843
185.643500,1845
185.644000,1825
185.644500,1845
185.645000,1828
185.645500,1812
185.646000,1800
185.646500,1808
185.647000,1794
185.647500,1784
185.648000,1786
185.648500,1785
185.649000,1766
185.649500,1794
185.650000,1797
185.650500,1785
185.651000,1782
185.651500,1797
185.652000,1790
185.652500,1790
185.653000,1805
185.653500,1814
185.654000,1800
185.654500,1820
185.655000,1820
185.655500,1808
185.656000,1806
185.656500,1820
185.657000,1813
185.657500,1811
185.658000,1834
185.658500,1849
185.659000,1835
185.659500,1853
185.660000,1844
185.660500,1832
185.661000,1822
185.661500,1830
185.662000,1821
185.662500,1804
185.663000,1812
185.663500,1811
185.664000,1789
185.664500,1791
185.665000,1783
185.665500,1769
185.666000,1767
185.666500,1785
185.667000,1785
185.667500,1779
185.668000,1792
185.668500,1798
185.669000,1785
185.669500,1789
185.670000,1801
185.670500,1791
185.671000,1788
185.671500,1800
185.672000,1791
185.672500,1792
185.673000,1807
185.673500,1816
185.674000,1803
185.674500,1826
185.675000,1821
185.675500,1806
185.676000,1803
185.676500,1815
185.677000,1802
185.677500,1800
185.678000,1811
185.678500,1815
185.679000,1800
185.679500,1805
185.680000,1814
185.680500,1804
185.681000,1801
185.681500,1813
185.682000,1816
185.682500,1805
185.683000,1814
185.683500,1820
185.684000,1808
185.684500,1801
185.685000,1821
185.685500,1807
185.686000,1804
185.686500,1818
185.687000,1826
185.687500,1802
185.688000,1816
185.688500,1818
185.689000,1800
185.689500,1793
185.690000,1806
185.690500,1801
185.691000,1795
185.691500,1803
185.692000,1812
185.692500,1799
185.693000,1810
185.693500,1824
185.694000,1813
185.694500,1810
185.695000,1829
185.695500,1821
185.696000,1819
185.696500,1827
185.697000,1828
185.697500,1808
185.698000,1818
185.698500,1818
185.699000,1804
185.699500,1791
185.700000,1805
185.700500,1797
185.701000,1790
185.701500,1797
185.702000,1800
185.702500,1786
185.703000,1789
185.703500,1804
185.704000,1790
185.704500,1786
185.705000,1801
185.705500,1795
185.706000,1791
185.706500,1805
185.707000,1809
185.707500,1793
185.708000,1794
185.708500,1802
185.709000,1793
185.709500,1790
185.710000,1812
185.710500,1803
185.711000,1798
185.711500,1808
185.712000,1813
185.712500,1801
185.713000,1801
185.713500,1815
185.714000,1805
185.714500,1797
185.715000,1810
185.715500,1806
185.716000,1804
185.716500,1816
185.717000,1825
185.717500,1817
185.718000,1834
185.718500,1834
185.719000,1823
185.719500,1818
185.720000,1840
185.720500,1822
185.721000,1820
185.721500,1824
185.722000,1828
185.722500,1810
185.723000,1818
185.723500,1811
185.724000,1795
185.724500,1788
185.725000,1798
185.725500,1786
185.726000,1781
185.726500,1787
185.727000,1790
185.727500,1778
185.728000,1780
185.728500,1796
185.729000,1790
185.729500,1788
185.730000,1809
185.730500,1797
185.731000,1795
185.731500,1806
185.732000,1814
185.732500,1804
185.733000,1820
185.733500,1819
185.734000,1810
185.734500,1809
185.735000,1822
185.735500,1809
185.736000,1812
185.736500,1820
185.737000,1823
185.737500,1808
185.738000,1815
185.738500,1819
185.739000,1805
185.739500,1795
185.740000,1810
185.740500,1792
185.741000,1795
185.741500,1806
185.742000,1813
185.742500,1802
185.743000,1814
185.743500,1813
185.744000,1801
185.744500,1798
185.745000,1818
185.745500,1809
185.746000,1806
185.746500,1814
185.747000,1820
185.747500,1808
185.748000,1823
185.748500,1819
185.749000,1805
185.749500,1799
185.750000,1813
185.750500,1805
185.751000,1795
185.751500,1802
185.752000,1808
185.752500,1789
185.753000,1800
185.753500,1800
185.754000,1790
185.754500,1788
185.755000,1808
185.755500,1805
185.756000,1800
185.756500,1807
185.757000,1815
185.757500,1799
185.758000,1807
185.758500,1815
185.759000,1803
185.759500,1796
185.760000,1814
185.760500,1810
185.761000,1803
185.761500,1810
185.762000,1813
185.762500,1797
185.763000,1804
185.763500,1803
185.764000,1791
185.764500,1786
185.765000,1812
185.765500,1807
185.766000,1806
185.766500,1816
185.767000,1820
185.767500,1805
185.768000,1804
185.768500,1815
185.769000,1803
185.769500,1799
185.770000,1818
185.770500,1809
185.771000,1797
