# Subject: S01
# Trial: fatigue
# Notes: 
# Muscles: Ch1
# fs=2000 Hz, nch=1, vref=3.3 V
t_s,ch1_code
512.615000,1849
512.615500,1820
512.616000,1792
512.616500,1779
512.617000,1754
512.617500,1741
512.618000,1751
512.618500,1756
512.619000,1756
512.619500,1785
512.620000,1809
512.620500,1808
512.621000,1810
512.621500,1829
512.622000,1808
512.622500,1779
512.623000,1774
512.623500,1776
512.624000,1771
512.624500,1783
512.625000,1795
512.625500,1793
512.626000,1793
512.626500,1816
512.627000,1816
512.627500,1809
512.628000,1820
512.628500,1826
512.629000,1806
512.629500,1810
512.630000,1825
512.630500,1811
512.631000,1809
512.631500,1826
512.632000,1816
512.632500,1811
512.633000,1823
512.633500,1822
512.634000,1804
512.634500,1811
512.635000,1823
512.635500,1803
512.636000,1798
512.636500,1809
512.637000,1798
512.637500,1797
512.638000,1814
512.638500,1816
512.639000,1791
512.639500,1793
512.640000,1810
512.640500,1799
512.641000,1811
512.641500,1823
512.642000,1825
512.642500,1832
512.643000,1859
512.643500,1849
512.644000,1848
512.644500,1858
512.645000,1863
512.645500,1846
512.646000,1848
512.646500,1831
512.647000,1814
512.647500,1802
512.648000,1809
512.648500,1793
512.649000,1778
512.649500,1781
512.650000,1789
512.650500,1766
512.651000,1783
512.651500,1766
512.652000,1762
512.652500,1767
512.653000,1788
512.653500,1784
512.654000,1784
512.654500,1805
512.655000,1815
512.655500,1805
512.656000,1824
512.656500,1813
512.657000,1799
512.657500,1792
512.658000,1808
512.658500,1801
512.659000,1802
512.659500,1811
512.660000,1818
512.660500,1801
512.661000,1825
512.661500,1812
512.662000,1799
512.662500,1794
512.663000,1810
512.663500,1804
512.664000,1799
512.664500,1810
512.665000,1816
512.665500,1801
512.666000,1820
512.666500,1809
512.667000,1801
512.667500,1801
512.668000,1814
512.668500,1809
512.669000,1806
512.669500,1823
512.670000,1834
512.670500,1822
512.671000,1821
512.671500,1834
512.672000,1818
512.672500,1815
512.673000,1831
512.673500,1824
512.674000,1819
512.674500,1834
512.675000,1843
512.675500,1819
512.676000,1830
512.676500,1844
512.677000,1833
512.677500,1829
512.678000,1847
512.678500,1834
512.679000,1817
512.679500,1813
512.680000,1808
512.680500,1781
512.681000,1778
512.681500,1780
512.682000,1788
512.682500,1826
512.683000,1869
512.683500,1865
512.684000,1856
512.684500,1868
512.685000,1865
512.685500,1830
512.686000,1814
512.686500,1786
512.687000,1744
512.687500,1733
512.688000,1761
512.688500,1767
512.689000,1768
512.689500,1776
512.690000,1755
512.690500,1752
512.691000,1764
512.691500,1774
512.692000,1770
512.692500,1793
512.693000,1788
512.693500,1780
512.694000,1774
512.694500,1791
512.695000,1790
512.695500,1796
512.696000,1811
512.696500,1820
512.697000,1806
512.697500,1810
512.698000,1827
512.698500,1820
512.699000,1817
512.699500,1831
512.700000,1830
512.700500,1841
512.701000,1858
512.701500,1862
512.702000,1841
512.702500,1853
512.703000,1856
512.703500,1841
512.704000,1825
512.704500,1818
512.705000,1792
512.705500,1773
512.706000,1794
512.706500,1799
512.707000,1782
512.707500,1777
512.708000,1795
512.708500,1783
512.709000,1781
512.709500,1802
512.710000,1798
512.710500,1792
512.711000,1806
512.711500,1804
512.712000,1783
512.712500,1785
512.713000,1815
512.713500,1815
512.714000,1812
512.714500,1831
512.715000,1828
512.715500,1819
512.716000,1828
512.716500,1824
512.717000,1807
512.717500,1817
512.718000,1826
512.718500,1813
512.719000,1812
512.719500,1829
512.720000,1821
512.720500,1819
512.721000,1833
512.721500,1839
512.722000,1826
512.722500,1828
512.723000,1816
512.723500,1791
512.724000,1777
512.724500,1799
512.725000,1806
512.725500,1808
512.726000,1813
512.726500,1812
512.727000,1793
512.727500,1799
512.728000,1801
512.728500,1785
512.729000,1774
512.729500,1789
512.730000,1785
512.730500,1783
512.731000,1795
512.731500,1801
512.732000,1787
512.732500,1790
512.733000,1808
512.733500,1796
512.734000,1796
512.734500,1814
512.735000,1812
512.735500,1805
512.736000,1819
512.736500,1828
512.737000,1817
512.737500,1818
512.738000,1831
512.738500,1817
512.739000,1809
512.739500,1828
512.740000,1830
512.740500,1832
512.741000,1844
512.741500,1847
512.742000,1834
512.742500,1858
512.743000,1843
512.743500,1836
512.744000,1828
512.744500,1842
512.745000,1839
512.745500,1847
512.746000,1849
512.746500,1829
512.747000,1795
512.747500,1795
512.748000,1782
512.748500,1758
512.749000,1740
512.749500,1740
512.750000,1728
512.750500,1749
512.751000,1787
512.751500,1802
512.752000,1794
512.752500,1797
512.753000,1821
512.753500,1811
512.754000,1803
512.754500,1821
512.755000,1834
512.755500,1817
512.756000,1828
512.756500,1822
512.757000,1804
512.757500,1796
512.758000,1820
512.758500,1813
512.759000,1806
512.759500,1809
512.760000,1799
512.760500,1777
512.761000,1796
512.761500,1814
512.762000,1806
512.762500,1802
512.763000,1818
512.763500,1806
512.764000,1801
512.764500,1812
512.765000,1799
512.765500,1801
512.766000,1811
512.766500,1814
512.767000,1797
512.767500,1792
512.768000,1810
512.768500,1802
512.769000,1797
512.769500,1817
512.770000,1801
512.770500,1803
512.771000,1814
512.771500,1814
512.772000,1804
512.772500,1819
512.773000,1822
512.773500,1816
512.774000,1815
512.774500,1831
512.775000,1815
512.775500,1817
512.776000,1824
512.776500,1823
512.777000,1806
512.777500,1815
512.778000,1810
512.778500,1801
512.779000,1798
512.779500,1811
512.780000,1805
512.780500,1799
512.781000,1808
512.781500,1818
512.782000,1802
512.782500,1820
512.783000,1815
512.783500,1806
512.784000,1806
512.784500,1823
512.785000,1817
512.785500,1809
512.786000,1818
512.786500,1819
512.787000,1802
512.787500,1802
512.788000,1818
512.788500,1808
512.789000,1809
512.789500,1833
512.790000,1839
512.790500,1839
512.791000,1850
512.791500,1848
512.792000,1828
512.792500,1819
512.793000,1811
512.793500,1780
512.794000,1766
512.794500,1782
512.795000,1778
512.795500,1783
512.796000,1797
512.796500,1796
512.797000,1779
512.797500,1794
512.798000,1797
512.798500,1791
512.799000,1796
512.799500,1828
512.800000,1827
512.800500,1815
512.801000,1827
512.801500,1833
512.802000,1823
512.802500,1833
512.803000,1840
512.803500,1817
512.804000,1796
512.804500,1795
512.805000,1782
512.805500,1775
512.806000,1788
512.806500,1795
512.807000,1784
512.807500,1797
512.808000,1806
512.808500,1798
512.809000,1796
512.809500,1814
512.810000,1806
512.810500,1804
512.811000,1816
512.811500,1819
512.812000,1811
512.812500,1832
512.813000,1837
512.813500,1821
512.814000,1818
512.814500,1836
512.815000,1836
512.815500,1823
512.816000,1820
512.816500,1798
512.817000,1768
512.817500,1787
512.818000,1802
512.818500,1788
512.819000,1790
512.819500,1816
512.820000,1803
512.820500,1801
512.821000,1820
512.821500,1828
512.822000,1808
512.822500,1810
512.823000,1807
512.823500,1788
512.824000,1786
512.824500,1819
512.825000,1835
512.825500,1832
512.826000,1839
512.826500,1834
512.827000,1815
512.827500,1833
512.828000,1845
512.828500,1834
512.829000,1829
512.829500,1838
512.830000,1816
512.830500,1797
512.831000,1798
512.831500,1794
512.832000,1777
512.832500,1791
512.833000,1791
512.833500,1772
512.834000,1768
512.834500,1786
512.835000,1785
512.835500,1778
512.836000,1789
512.836500,1795
512.837000,1783
512.837500,1794
512.838000,1804
512.838500,1798
512.839000,1794
512.839500,1814
512.840000,1810
512.840500,1800
512.841000,1820
512.841500,1829
512.842000,1816
512.842500,1830
512.843000,1837
512.843500,1819
512.844000,1810
512.844500,1824
512.845000,1818
512.845500,1806
512.846000,1822
512.846500,1829
512.847000,1817
512.847500,1830
512.848000,1836
512.848500,1819
512.849000,1807
512.849500,1821
512.850000,1817
512.850500,1804
512.851000,1813
512.851500,1805
512.852000,1780
512.852500,1787
512.853000,1786
512.853500,1771
512.854000,1771
512.854500,1802
512.855000,1814
512.855500,1826
512.856000,1848
512.856500,1848
512.857000,1830
512.857500,1837
512.858000,1838
512.858500,1826
512.859000,1823
512.859500,1838
512.860000,1834
512.860500,1820
512.861000,1826
512.861500,1818
512.862000,1789
512.862500,1804
512.863000,1813
512.863500,1803
512.864000,1797
512.864500,1812
512.865000,1802
512.865500,1794
512.866000,1802
512.866500,1793
512.867000,1775
512.867500,1792
512.868000,1808
512.868500,1795
512.869000,1795
512.869500,1812
512.870000,1805
512.870500,1798
512.871000,1812
512.871500,1815
512.872000,1800
512.872500,1808
512.873000,1815
512.873500,1800
512.874000,1794
512.874500,1810
512.875000,1809
512.875500,1807
512.876000,1818
512.876500,1818
512.877000,1799
512.877500,1812
512.878000,1822
512.878500,1817
512.879000,1816
512.879500,1839
512.880000,1832
512.880500,1819
512.881000,1824
512.881500,1821
512.882000,1799
512.882500,1806
512.883000,1831
512.883500,1832
512.884000,1839
512.884500,1856
512.885000,1839
512.885500,1823
512.886000,1823
512.886500,1804
512.887000,1762
512.887500,1752
512.888000,1759
512.888500,1762
512.889000,1780
512.889500,1825
512.890000,1837
512.890500,1833
512.891000,1841
512.891500,1840
512.892000,1817
512.892500,1827
512.893000,1836
512.893500,1816
512.894000,1793
512.894500,1805
512.895000,1811
512.895500,1813
512.896000,1835
512.896500,1849
512.897000,1839
512.897500,1846
512.898000,1840
512.898500,1816
512.899000,1806
512.899500,1822
512.900000,1812
512.900500,1798
512.901000,1798
512.901500,1786
512.902000,1757
512.902500,1757
512.903000,1754
512.903500,1732
512.904000,1728
512.904500,1750
512.905000,1744
512.905500,1758
512.906000,1787
512.906500,1806
512.907000,1805
512.907500,1820
512.908000,1824
512.908500,1805
512.909000,1795
512.909500,1812
512.910000,1801
512.910500,1791
512.911000,1799
512.911500,1808
512.912000,1810
512.912500,1823
512.913000,1828
512.913500,1818
512.914000,1814
512.914500,1830
512.915000,1821
512.915500,1812
512.916000,1812
512.916500,1808
512.917000,1783
512.917500,1811
512.918000,1834
512.918500,1832
512.919000,1833
512.919500,1855
512.920000,1850
512.920500,1842
512.921000,1851
512.921500,1846
512.922000,1822
512.922500,1830
512.923000,1830
512.923500,1812
512.924000,1804
512.924500,1808
512.925000,1792
512.925500,1798
512.926000,1824
512.926500,1817
512.927000,1809
512.927500,1818
512.928000,1822
512.928500,1806
512.929000,1812
512.929500,1798
512.930000,1773
512.930500,1761
512.931000,1774
512.931500,1775
512.932000,1771
512.932500,1789
512.933000,1798
512.933500,1789
512.934000,1812
512.934500,1810
512.935000,1810
512.935500,1810
512.936000,1834
512.936500,1831
512.937000,1827
512.937500,1835
512.938000,1845
512.938500,1832
512.939000,1836
512.939500,1826
512.940000,1812
512.940500,1801
512.941000,1811
512.941500,1797
512.942000,1776
512.942500,1785
512.943000,1802
512.943500,1802
512.944000,1808
512.944500,1824
512.945000,1820
512.945500,1811
512.946000,1827
512.946500,1822
512.947000,1818
512.947500,1834
512.948000,1835
512.948500,1819
512.949000,1840
512.949500,1856
512.950000,1859
512.950500,1858
512.951000,1872
512.951500,1850
512.952000,1838
512.952500,1848
512.953000,1845
512.953500,1828
512.954000,1848
512.954500,1850
512.955000,1823
512.955500,1806
512.956000,1807
512.956500,1784
512.957000,1757
512.957500,1748
512.958000,1738
512.958500,1717
512.959000,1736
512.959500,1749
512.960000,1748
512.960500,1751
512.961000,1778
512.961500,1781
512.962000,1780
512.962500,1795
512.963000,1799
512.963500,1780
512.964000,1796
512.964500,1820
512.965000,1819
512.965500,1809
512.966000,1825
512.966500,1821
512.967000,1812
512.967500,1820
512.968000,1815
512.968500,1778
512.969000,1771
512.969500,1768
512.970000,1761
512.970500,1765
512.971000,1783
512.971500,1779
512.972000,1788
512.972500,1809
512.973000,1827
512.973500,1820
512.974000,1830
512.974500,1840
512.975000,1829
512.975500,1815
512.976000,1824
512.976500,1810
512.977000,1807
512.977500,1820
512.978000,1826
512.978500,1806
512.979000,1813
512.979500,1815
512.980000,1800
512.980500,1794
512.981000,1813
512.981500,1810
512.982000,1818
512.982500,1837
512.983000,1846
512.983500,1835
512.984000,1853
512.984500,1853
512.985000,1829
512.985500,1808
512.986000,1812
512.986500,1797
512.987000,1790
512.987500,1802
512.988000,1806
512.988500,1779
512.989000,1790
512.989500,1799
512.990000,1803
512.990500,1803
512.991000,1818
512.991500,1804
512.992000,1800
512.992500,1817
512.993000,1823
512.993500,1810
512.994000,1823
512.994500,1845
512.995000,1853
512.995500,1850
512.996000,1866
512.996500,1857
512.997000,1853
512.997500,1851
512.998000,1826
512.998500,1798
512.999000,1796
512.999500,1799
513.000000,1795
513.000500,1805
513.001000,1805
513.001500,1776
513.002000,1765
513.002500,1791
513.003000,1793
513.003500,1811
513.004000,1823
513.004500,1813
513.005000,1783
513.005500,1778
513.006000,1803
513.006500,1792
513.007000,1802
513.007500,1824
513.008000,1802
513.008500,1789
513.009000,1804
513.009500,1816
513.010000,1812
513.010500,1821
513.011000,1819
513.011500,1808
513.012000,1797
513.012500,1819
513.013000,1822
513.013500,1816
513.014000,1817
513.014500,1813
513.015000,1792
513.015500,1810
513.016000,1795
513.016500,1771
513.017000,1759
513.017500,1777
513.018000,1780
513.018500,1793
513.019000,1818
513.019500,1828
513.020000,1816
513.020500,1827
513.021000,1819
513.021500,1814
513.022000,1823
513.022500,1844
513.023000,1838
513.023500,1835
513.024000,1848
513.024500,1855
513.025000,1851
513.025500,1875
513.026000,1862
513.026500,1831
513.027000,1811
513.027500,1812
513.028000,1799
513.028500,1792
513.029000,1795
513.029500,1792
513.030000,1773
513.030500,1787
513.031000,1772
513.031500,1756
513.032000,1745
513.032500,1769
513.033000,1773
513.033500,1781
513.034000,1800
513.034500,1816
513.035000,1810
513.035500,1818
513.036000,1838
513.036500,1833
513.037000,1837
513.037500,1860
513.038000,1851
513.038500,1827
513.039000,1817
513.039500,1808
513.040000,1809
513.040500,1820
513.041000,1833
513.041500,1817
513.042000,1816
513.042500,1834
513.043000,1833
513.043500,1824
513.044000,1834
513.044500,1829
513.045000,1799
513.045500,1782
513.046000,1782
513.046500,1756
513.047000,1752
513.047500,1783
513.048000,1783
513.048500,1778
513.049000,1808
513.049500,1840
513.050000,1832
513.050500,1823
513.051000,1826
513.051500,1815
513.052000,1812
513.052500,1828
513.053000,1823
513.053500,1809
513.054000,1808
513.054500,1806
513.055000,1787
513.055500,1788
513.056000,1788
513.056500,1780
513.057000,1785
513.057500,1815
513.058000,1827
513.058500,1830
513.059000,1840
513.059500,1837
513.060000,1822
513.060500,1827
513.061000,1830
513.061500,1811
513.062000,1812
513.062500,1830
513.063000,1820
513.063500,1822
513.064000,1834
513.064500,1868
513.065000,1881
513.065500,1888
513.066000,1854
513.066500,1805
513.067000,1792
513.067500,1810
513.068000,1781
513.068500,1745
513.069000,1736
513.069500,1712
513.070000,1702
513.070500,1718
513.071000,1752
513.071500,1752
513.072000,1782
513.072500,1786
513.073000,1781
513.073500,1785
513.074000,1805
513.074500,1802
513.075000,1799
513.075500,1813
513.076000,1822
513.076500,1809
513.077000,1830
513.077500,1838
513.078000,1836
513.078500,1851
513.079000,1875
513.079500,1863
513.080000,1842
513.080500,1837
513.081000,1824
513.081500,1786
513.082000,1779
513.082500,1791
513.083000,1789
513.083500,1790
513.084000,1802
513.084500,1794
513.085000,1782
513.085500,1790
513.086000,1800
513.086500,1792
513.087000,1808
513.087500,1819
513.088000,1812
513.088500,1808
513.089000,1822
513.089500,1812
513.090000,1802
513.090500,1816
513.091000,1823
513.091500,1809
513.092000,1830
513.092500,1841
513.093000,1827
513.093500,1822
513.094000,1837
513.094500,1833
513.095000,1830
513.095500,1835
513.096000,1816
513.096500,1774
513.097000,1767
513.097500,1784
513.098000,1782
513.098500,1786
513.099000,1807
513.099500,1803
513.100000,1806
513.100500,1821
513.101000,1823
513.101500,1802
513.102000,1810
513.102500,1813
513.103000,1795
513.103500,1788
513.104000,1807
513.104500,1807
513.105000,1803
513.105500,1816
513.106000,1824
513.106500,1815
513.107000,1828
513.107500,1833
513.108000,1817
513.108500,1814
513.109000,1832
513.109500,1823
513.110000,1815
513.110500,1827
513.111000,1828
513.111500,1792
513.112000,1787
513.112500,1778
513.113000,1766
513.113500,1778
513.114000,1802
513.114500,1793
513.115000,1791
513.115500,1822
513.116000,1839
513.116500,1819
513.117000,1827
513.117500,1832
513.118000,1818
513.118500,1814
513.119000,1830
513.119500,1818
513.120000,1812
513.120500,1821
513.121000,1808
513.121500,1799
513.122000,1814
513.122500,1830
513.123000,1821
513.123500,1830
513.124000,1834
513.124500,1810
513.125000,1780
513.125500,1786
513.126000,1773
513.126500,1763
513.127000,1781
513.127500,1797
513.128000,1799
513.128500,1835
513.129000,1852
513.129500,1843
513.130000,1838
513.130500,1851
513.131000,1841
513.131500,1831
513.132000,1864
513.132500,1902
513.133000,1906
513.133500,1917
513.134000,1908
513.134500,1888
513.135000,1862
513.135500,1849
513.136000,1798
513.136500,1762
513.137000,1759
513.137500,1782
513.138000,1796
513.138500,1817
513.139000,1828
513.139500,1804
513.140000,1790
513.140500,1797
513.141000,1778
513.141500,1755
513.142000,1752
513.142500,1746
513.143000,1709
513.143500,1711
513.144000,1746
513.144500,1752
513.145000,1765
513.145500,1791
513.146000,1786
513.146500,1781
513.147000,1798
513.147500,1802
513.148000,1788
513.148500,1791
513.149000,1797
513.149500,1789
513.150000,1790
513.150500,1806
513.151000,1795
513.151500,1801
513.152000,1830
513.152500,1843
513.153000,1832
513.153500,1841
513.154000,1839
513.154500,1822
513.155000,1806
513.155500,1789
513.156000,1751
513.156500,1734
513.157000,1766
513.157500,1795
513.158000,1833
513.158500,1882
513.159000,1890
513.159500,1878
513.160000,1864
513.160500,1855
513.161000,1815
513.161500,1791
513.162000,1777
513.162500,1740
513.163000,1709
513.163500,1722
513.164000,1761
513.164500,1799
513.165000,1844
513.165500,1842
513.166000,1838
513.166500,1836
513.167000,1852
513.167500,1842
513.168000,1831
513.168500,1838
513.169000,1849
513.169500,1832
513.170000,1844
513.170500,1831
513.171000,1814
513.171500,1807
513.172000,1819
513.172500,1805
513.173000,1786
513.173500,1790
513.174000,1791
513.174500,1780
513.175000,1791
513.175500,1801
513.176000,1788
513.176500,1774
513.177000,1782
513.177500,1768
513.178000,1762
513.178500,1791
513.179000,1813
513.179500,1804
513.180000,1810
513.180500,1820
513.181000,1809
513.181500,1800
513.182000,1811
513.182500,1805
513.183000,1802
513.183500,1823
513.184000,1839
513.184500,1837
513.185000,1855
513.185500,1876
513.186000,1874
513.186500,1859
513.187000,1859
513.187500,1850
513.188000,1841
513.188500,1845
513.189000,1836
513.189500,1808
513.190000,1790
513.190500,1774
513.191000,1761
513.191500,1781
513.192000,1816
513.192500,1814
513.193000,1805
513.193500,1814
513.194000,1813
513.194500,1798
513.195000,1803
513.195500,1809
513.196000,1797
513.196500,1788
513.197000,1803
513.197500,1799
513.198000,1791
513.198500,1799
513.199000,1803
513.199500,1783
513.200000,1788
513.200500,1786
513.201000,1768
513.201500,1761
513.202000,1786
513.202500,1786
513.203000,1790
513.203500,1812
513.204000,1812
513.204500,1798
513.205000,1814
513.205500,1820
513.206000,1805
513.206500,1788
513.207000,1793
513.207500,1782
513.208000,1775
513.208500,1792
513.209000,1807
513.209500,1795
513.210000,1809
513.210500,1814
513.211000,1807
513.211500,1806
513.212000,1839
513.212500,1842
513.213000,1836
513.213500,1843
513.214000,1845
513.214500,1831
513.215000,1855
513.215500,1871
513.216000,1864
513.216500,1853
513.217000,1856
513.217500,1847
513.218000,1840
513.218500,1843
513.219000,1819
513.219500,1774
513.220000,1779
513.220500,1807
513.221000,1819
513.221500,1825
513.222000,1841
513.222500,1832
513.223000,1811
513.223500,1807
513.224000,1776
513.224500,1738
513.225000,1743
513.225500,1773
513.226000,1789
513.226500,1785
513.227000,1798
513.227500,1791
513.228000,1782
513.228500,1792
513.229000,1800
513.229500,1781
513.230000,1796
513.230500,1812
513.231000,1810
513.231500,1816
513.232000,1842
513.232500,1842
513.233000,1831
513.233500,1843
513.234000,1841
513.234500,1823
513.235000,1825
513.235500,1831
513.236000,1810
513.236500,1818
513.237000,1848
513.237500,1834
513.238000,1821
513.238500,1838
513.239000,1845
513.239500,1847
513.240000,1849
513.240500,1841
513.241000,1804
513.241500,1807
513.242000,1831
513.242500,1840
513.243000,1832
513.243500,1825
513.244000,1782
513.244500,1766
513.245000,1774
513.245500,1778
513.246000,1755
513.246500,1732
513.247000,1736
513.247500,1731
513.248000,1759
513.248500,1789
513.249000,1774
513.249500,1786
513.250000,1810
513.250500,1824
513.251000,1810
513.251500,1799
513.252000,1803
513.252500,1774
513.253000,1761
513.253500,1779
513.254000,1784
513.254500,1775
513.255000,1790
513.255500,1804
513.256000,1804
513.256500,1806
513.257000,1824
513.257500,1816
513.258000,1815
513.258500,1828
513.259000,1830
513.259500,1802
513.260000,1806
513.260500,1808
513.261000,1792
513.261500,1784
513.262000,1805
513.262500,1799
513.263000,1798
513.263500,1815
513.264000,1822
513.264500,1811
513.265000,1828
513.265500,1849
513.266000,1864
513.266500,1869
513.267000,1888
513.267500,1880
513.268000,1870
513.268500,1874
513.269000,1864
513.269500,1816
513.270000,1795
513.270500,1774
513.271000,1758
513.271500,1757
513.272000,1777
513.272500,1766
513.273000,1766
513.273500,1790
513.274000,1808
513.274500,1790
513.275000,1795
513.275500,1793
513.276000,1787
513.276500,1798
513.277000,1820
513.277500,1802
513.278000,1780
513.278500,1781
513.279000,1774
513.279500,1755
513.280000,1781
513.280500,1809
513.281000,1818
513.281500,1829
513.282000,1855
513.282500,1859
513.283000,1862
513.283500,1874
513.284000,1851
513.284500,1860
513.285000,1874
513.285500,1869
513.286000,1845
513.286500,1842
513.287000,1822
513.287500,1789
513.288000,1766
513.288500,1764
513.289000,1732
513.289500,1733
513.290000,1769
513.290500,1795
513.291000,1796
513.291500,1824
513.292000,1833
513.292500,1822
513.293000,1822
513.293500,1844
513.294000,1838
513.294500,1837
513.295000,1845
513.295500,1838
513.296000,1809
513.296500,1790
513.297000,1798
513.297500,1813
513.298000,1834
513.298500,1844
513.299000,1836
513.299500,1805
513.300000,1820
513.300500,1826
513.301000,1799
513.301500,1770
513.302000,1755
513.302500,1736
513.303000,1764
513.303500,1836
513.304000,1872
513.304500,1862
513.305000,1873
513.305500,1870
513.306000,1841
513.306500,1816
513.307000,1799
513.307500,1752
513.308000,1722
513.308500,1729
513.309000,1754
513.309500,1760
513.310000,1791
513.310500,1808
513.311000,1793
513.311500,1785
513.312000,1798
513.312500,1783
513.313000,1777
513.313500,1798
513.314000,1814
513.314500,1802
513.315000,1819
513.315500,1825
513.316000,1805
513.316500,1789
513.317000,1813
513.317500,1821
513.318000,1820
513.318500,1833
513.319000,1840
513.319500,1826
513.320000,1834
513.320500,1844
513.321000,1828
513.321500,1813
513.322000,1819
513.322500,1808
513.323000,1799
513.323500,1807
513.324000,1806
513.324500,1797
513.325000,1815
513.325500,1826
513.326000,1809
513.326500,1779
513.327000,1775
513.327500,1787
513.328000,1809
513.328500,1864
513.329000,1884
513.329500,1884
513.330000,1910
513.330500,1916
513.331000,1879
513.331500,1831
513.332000,1812
513.332500,1794
513.333000,1801
513.333500,1815
513.334000,1810
513.334500,1762
513.335000,1753
513.335500,1747
513.336000,1731
513.336500,1731
513.337000,1763
513.337500,1767
513.338000,1767
513.338500,1782
513.339000,1781
513.339500,1766
513.340000,1777
513.340500,1779
513.341000,1772
513.341500,1778
513.342000,1815
513.342500,1822
513.343000,1827
513.343500,1844
513.344000,1849
513.344500,1832
513.345000,1829
513.345500,1816
513.346000,1779
513.346500,1767
513.347000,1784
513.347500,1786
513.348000,1785
513.348500,1796
513.349000,1809
513.349500,1791
513.350000,1793
513.350500,1816
513.351000,1819
513.351500,1816
513.352000,1825
513.352500,1810
513.353000,1805
513.353500,1818
513.354000,1819
513.354500,1805
513.355000,1826
513.355500,1820
513.356000,1806
513.356500,1799
513.357000,1814
513.357500,1818
513.358000,1820
513.358500,1836
513.359000,1838
513.359500,1823
513.360000,1843
513.360500,1837
513.361000,1824
513.361500,1817
513.362000,1833
513.362500,1820
513.363000,1809
513.363500,1809
513.364000,1808
513.364500,1791
513.365000,1804
513.365500,1808
513.366000,1797
513.366500,1801
513.367000,1821
513.367500,1810
513.368000,1813
513.368500,1824
513.369000,1825
513.369500,1805
513.370000,1813
513.370500,1812
513.371000,1818
513.371500,1823
513.372000,1834
513.372500,1805
513.373000,1792
513.373500,1801
513.374000,1823
513.374500,1823
513.375000,1840
513.375500,1848
513.376000,1843
513.376500,1838
513.377000,1849
513.377500,1832
513.378000,1830
513.378500,1834
513.379000,1826
513.379500,1796
513.380000,1774
513.380500,1766
513.381000,1739
513.381500,1733
513.382000,1750
513.382500,1760
513.383000,1752
513.383500,1772
513.384000,1786
513.384500,1782
513.385000,1789
513.385500,1814
513.386000,1809
513.386500,1804
513.387000,1823
513.387500,1840
513.388000,1833
513.388500,1844
513.389000,1848
513.389500,1850
513.390000,1859
513.390500,1870
513.391000,1842
513.391500,1802
513.392000,1790
513.392500,1800
513.393000,1807
513.393500,1816
513.394000,1812
513.394500,1800
513.395000,1802
513.395500,1844
513.396000,1854
513.396500,1838
513.397000,1843
513.397500,1847
513.398000,1833
513.398500,1847
513.399000,1835
513.399500,1809
513.400000,1784
513.400500,1802
513.401000,1814
513.401500,1838
513.402000,1856
513.402500,1854
513.403000,1827
513.403500,1815
513.404000,1796
513.404500,1756
513.405000,1754
513.405500,1798
513.406000,1794
513.406500,1788
513.407000,1798
513.407500,1795
513.408000,1772
513.408500,1770
513.409000,1757
513.409500,1720
513.410000,1690
513.410500,1696
513.411000,1704
513.411500,1728
513.412000,1773
513.412500,1793
513.413000,1786
513.413500,1793
513.414000,1803
513.414500,1793
513.415000,1791
513.415500,1811
513.416000,1809
513.416500,1845
513.417000,1897
513.417500,1924
513.418000,1907
513.418500,1903
513.419000,1899
513.419500,1872
513.420000,1841
513.420500,1823
513.421000,1770
513.421500,1751
513.422000,1792
513.422500,1818
513.423000,1799
513.423500,1803
513.424000,1816
513.424500,1802
513.425000,1790
513.425500,1816
513.426000,1824
513.426500,1823
513.427000,1832
513.427500,1822
513.428000,1785
513.428500,1775
513.429000,1780
513.429500,1763
513.430000,1770
513.430500,1781
513.431000,1782
513.431500,1780
513.432000,1792
513.432500,1796
513.433000,1784
513.433500,1791
513.434000,1808
513.434500,1803
513.435000,1814
513.435500,1837
513.436000,1831
513.436500,1829
513.437000,1861
513.437500,1877
513.438000,1846
513.438500,1826
513.439000,1813
513.439500,1793
513.440000,1791
513.440500,1803
513.441000,1798
513.441500,1788
513.442000,1803
513.442500,1811
513.443000,1791
513.443500,1796
513.444000,1805
513.444500,1817
513.445000,1835
513.445500,1858
513.446000,1872
513.446500,1877
513.447000,1878
513.447500,1854
513.448000,1802
513.448500,1781
513.449000,1764
513.449500,1745
513.450000,1746
513.450500,1756
513.451000,1750
513.451500,1753
513.452000,1794
513.452500,1818
513.453000,1812
513.453500,1831
513.454000,1835
513.454500,1821
513.455000,1817
513.455500,1822
513.456000,1801
513.456500,1787
513.457000,1796
513.457500,1803
513.458000,1788
513.458500,1789
513.459000,1810
513.459500,1812
513.460000,1821
513.460500,1838
513.461000,1835
513.461500,1826
513.462000,1846
513.462500,1855
513.463000,1842
513.463500,1882
513.464000,1898
513.464500,1898
513.465000,1892
513.465500,1894
513.466000,1865
513.466500,1838
513.467000,1831
513.467500,1820
513.468000,1789
513.468500,1789
513.469000,1781
513.469500,1759
513.470000,1740
513.470500,1740
513.471000,1721
513.471500,1724
513.472000,1740
513.472500,1752
513.473000,1745
513.473500,1758
513.474000,1788
513.474500,1794
513.475000,1813
513.475500,1841
513.476000,1834
513.476500,1836
513.477000,1833
513.477500,1816
513.478000,1767
513.478500,1771
513.479000,1774
513.479500,1779
513.480000,1780
513.480500,1798
513.481000,1802
513.481500,1790
513.482000,1802
513.482500,1810
513.483000,1798
513.483500,1816
513.484000,1830
513.484500,1827
513.485000,1827
513.485500,1844
513.486000,1836
513.486500,1837
513.487000,1858
513.487500,1857
513.488000,1821
513.488500,1814
513.489000,1800
513.489500,1819
513.490000,1848
513.490500,1871
513.491000,1854
513.491500,1839
513.492000,1831
513.492500,1818
513.493000,1777
513.493500,1748
513.494000,1786
513.494500,1809
513.495000,1846
513.495500,1862
513.496000,1856
513.496500,1828
513.497000,1826
513.497500,1796
513.498000,1733
513.498500,1690
513.499000,1687
513.499500,1674
513.500000,1704
513.500500,1806
513.501000,1890
513.501500,1899
513.502000,1921
513.502500,1932
513.503000,1925
513.503500,1901
513.504000,1890
513.504500,1861
513.505000,1836
513.505500,1803
513.506000,1771
513.506500,1728
513.507000,1717
513.507500,1709
513.508000,1705
513.508500,1710
513.509000,1735
513.509500,1763
513.510000,1786
513.510500,1808
513.511000,1824
513.511500,1812
513.512000,1819
513.512500,1829
513.513000,1823
513.513500,1799
513.514000,1805
513.514500,1793
513.515000,1790
513.515500,1805
513.516000,1824
513.516500,1805
513.517000,1796
513.517500,1808
513.518000,1798
513.518500,1796
513.519000,1808
513.519500,1805
513.520000,1806
513.520500,1823
513.521000,1828
513.521500,1815
513.522000,1833
513.522500,1830
513.523000,1811
513.523500,1803
513.524000,1811
513.524500,1809
513.525000,1811
513.525500,1826
513.526000,1827
513.526500,1807
513.527000,1824
513.527500,1817
513.528000,1801
513.528500,1794
513.529000,1811
513.529500,1826
513.530000,1846
513.530500,1856
513.531000,1828
513.531500,1784
513.532000,1786
513.532500,1791
513.533000,1778
513.533500,1784
513.534000,1808
513.534500,1798
513.535000,1798
513.535500,1804
513.536000,1801
513.536500,1792
513.537000,1812
513.537500,1854
513.538000,1867
513.538500,1881
513.539000,1916
513.539500,1946
513.540000,1929
513.540500,1926
513.541000,1904
513.541500,1854
513.542000,1830
513.542500,1834
513.543000,1818
513.543500,1801
513.544000,1789
513.544500,1776
513.545000,1749
513.545500,1758
513.546000,1760
513.546500,1739
513.547000,1721
513.547500,1734
513.548000,1731
513.548500,1732
513.549000,1745
513.549500,1744
513.550000,1726
513.550500,1747
513.551000,1762
513.551500,1757
513.552000,1765
513.552500,1796
513.553000,1791
513.553500,1781
513.554000,1796
513.554500,1802
513.555000,1786
513.555500,1805
513.556000,1817
513.556500,1813
513.557000,1821
513.557500,1846
513.558000,1839
513.558500,1834
513.559000,1850
513.559500,1857
513.560000,1845
513.560500,1850
513.561000,1856
513.561500,1840
513.562000,1826
513.562500,1828
513.563000,1810
513.563500,1791
513.564000,1794
513.564500,1798
513.565000,1791
513.565500,1798
513.566000,1792
513.566500,1766
513.567000,1761
513.567500,1783
513.568000,1786
513.568500,1786
513.569000,1831
513.569500,1878
513.570000,1873
513.570500,1866
513.571000,1876
513.571500,1879
513.572000,1866
513.572500,1851
513.573000,1796
513.573500,1744
513.574000,1744
513.574500,1773
513.575000,1783
513.575500,1790
513.576000,1771
513.576500,1762
513.577000,1764
513.577500,1784
513.578000,1799
513.578500,1818
513.579000,1849
513.579500,1866
513.580000,1847
513.580500,1851
513.581000,1848
513.581500,1842
513.582000,1840
513.582500,1852
513.583000,1839
513.583500,1831
513.584000,1833
513.584500,1832
513.585000,1812
513.585500,1783
513.586000,1778
513.586500,1757
513.587000,1758
513.587500,1777
513.588000,1781
513.588500,1769
513.589000,1772
513.589500,1768
513.590000,1760
513.590500,1768
513.591000,1806
513.591500,1817
513.592000,1820
513.592500,1867
513.593000,1900
513.593500,1898
513.594000,1909
513.594500,1908
513.595000,1906
513.595500,1884
513.596000,1826
513.596500,1738
513.597000,1684
513.597500,1688
513.598000,1713
513.598500,1732
513.599000,1809
513.599500,1861
513.600000,1843
513.600500,1816
513.601000,1832
513.601500,1818
513.602000,1796
513.602500,1790
513.603000,1777
513.603500,1759
513.604000,1765
513.604500,1770
513.605000,1757
513.605500,1766
513.606000,1795
513.606500,1815
513.607000,1829
513.607500,1849
513.608000,1834
513.608500,1829
513.609000,1841
513.609500,1843
513.610000,1826
513.610500,1839
513.611000,1832
513.611500,1813
513.612000,1799
513.612500,1793
513.613000,1766
513.613500,1761
513.614000,1797
513.614500,1819
513.615000,1816
513.615500,1835
513.616000,1844
513.616500,1831
513.617000,1819
513.617500,1830
513.618000,1816
513.618500,1809
513.619000,1815
513.619500,1810
513.620000,1787
513.620500,1771
513.621000,1776
513.621500,1766
513.622000,1774
513.622500,1800
513.623000,1788
513.623500,1770
513.624000,1778
513.624500,1781
513.625000,1772
513.625500,1785
513.626000,1798
513.626500,1814
513.627000,1847
513.627500,1877
513.628000,1878
513.628500,1876
513.629000,1885
513.629500,1882
513.630000,1847
513.630500,1804
513.631000,1771
513.631500,1734
513.632000,1734
513.632500,1779
513.633000,1795
513.633500,1808
513.634000,1830
513.634500,1839
513.635000,1816
513.635500,1808
513.636000,1804
513.636500,1770
513.637000,1763
513.637500,1781
513.638000,1776
513.638500,1779
513.639000,1798
513.639500,1810
513.640000,1796
513.640500,1806
513.641000,1826
513.641500,1832
513.642000,1850
513.642500,1874
513.643000,1866
513.643500,1849
513.644000,1865
513.644500,1870
513.645000,1850
513.645500,1859
513.646000,1850
513.646500,1829
513.647000,1818
513.647500,1835
513.648000,1807
513.648500,1768
513.649000,1752
513.649500,1748
513.650000,1750
513.650500,1780
513.651000,1775
513.651500,1773
513.652000,1806
513.652500,1878
513.653000,1892
513.653500,1873
513.654000,1869
513.654500,1866
513.655000,1844
513.655500,1828
513.656000,1782
513.656500,1723
513.657000,1710
513.657500,1748
513.658000,1770
513.658500,1769
513.659000,1783
513.659500,1795
513.660000,1786
513.660500,1802
513.661000,1800
513.661500,1790
513.662000,1790
513.662500,1806
513.663000,1825
513.663500,1868
513.664000,1904
513.664500,1895
513.665000,1863
513.665500,1888
513.666000,1901
513.666500,1892
513.667000,1871
513.667500,1879
513.668000,1852
513.668500,1833
513.669000,1817
513.669500,1790
513.670000,1747
513.670500,1727
513.671000,1690
513.671500,1684
513.672000,1704
513.672500,1732
513.673000,1747
513.673500,1761
513.674000,1776
513.674500,1781
513.675000,1767
513.675500,1749
513.676000,1715
513.676500,1700
513.677000,1732
513.677500,1782
513.678000,1780
513.678500,1772
513.679000,1801
513.679500,1823
513.680000,1818
513.680500,1828
513.681000,1848
513.681500,1833
513.682000,1818
513.682500,1818
513.683000,1808
513.683500,1806
513.684000,1833
513.684500,1878
513.685000,1895
513.685500,1914
513.686000,1934
513.686500,1933
513.687000,1925
513.687500,1919
513.688000,1873
513.688500,1811
513.689000,1752
513.689500,1734
513.690000,1742
513.690500,1768
513.691000,1815
513.691500,1840
513.692000,1842
513.692500,1845
513.693000,1815
513.693500,1776
513.694000,1767
513.694500,1770
513.695000,1747
513.695500,1729
513.696000,1731
513.696500,1731
513.697000,1751
513.697500,1789
513.698000,1793
513.698500,1789
513.699000,1805
513.699500,1819
513.700000,1820
513.700500,1858
513.701000,1871
513.701500,1857
513.702000,1851
513.702500,1872
513.703000,1862
513.703500,1849
513.704000,1858
513.704500,1851
513.705000,1806
513.705500,1804
513.706000,1805
513.706500,1796
513.707000,1776
513.707500,1780
513.708000,1771
513.708500,1770
513.709000,1779
513.709500,1787
513.710000,1770
513.710500,1781
513.711000,1775
513.711500,1758
513.712000,1763
513.712500,1784
513.713000,1786
513.713500,1780
513.714000,1792
513.714500,1806
513.715000,1803
513.715500,1819
513.716000,1816
513.716500,1800
513.717000,1799
513.717500,1815
513.718000,1808
513.718500,1806
513.719000,1813
513.719500,1814
513.720000,1811
513.720500,1842
513.721000,1838
513.721500,1826
513.722000,1831
513.722500,1849
513.723000,1844
513.723500,1837
513.724000,1827
513.724500,1808
513.725000,1791
513.725500,1822
513.726000,1843
513.726500,1853
513.727000,1864
513.727500,1884
513.728000,1877
513.728500,1864
513.729000,1875
513.729500,1873
513.730000,1847
513.730500,1826
513.731000,1820
513.731500,1781
513.732000,1749
513.732500,1745
513.733000,1741
513.733500,1739
513.734000,1761
513.734500,1772
513.735000,1777
513.735500,1779
513.736000,1794
513.736500,1786
513.737000,1776
513.737500,1786
513.738000,1784
513.738500,1788
513.739000,1812
513.739500,1828
513.740000,1828
513.740500,1819
513.741000,1812
513.741500,1783
513.742000,1794
513.742500,1844
513.743000,1850
513.743500,1834
513.744000,1837
513.744500,1830
513.745000,1830
513.745500,1834
513.746000,1853
513.746500,1833
513.747000,1828
513.747500,1849
513.748000,1854
513.748500,1835
513.749000,1843
513.749500,1839
513.750000,1809
513.750500,1781
513.751000,1758
513.751500,1720
513.752000,1696
513.752500,1736
513.753000,1770
513.753500,1787
513.754000,1810
513.754500,1831
513.755000,1829
513.755500,1843
513.756000,1834
513.756500,1816
513.757000,1821
513.757500,1848
513.758000,1850
513.758500,1855
513.759000,1861
513.759500,1893
513.760000,1930
513.760500,1938
513.761000,1934
513.761500,1876
513.762000,1793
513.762500,1761
513.763000,1770
513.763500,1735
513.764000,1721
513.764500,1723
513.765000,1714
513.765500,1714
513.766000,1741
513.766500,1726
513.767000,1707
513.767500,1711
513.768000,1723
513.768500,1735
513.769000,1768
513.769500,1780
513.770000,1779
513.770500,1777
513.771000,1793
513.771500,1778
513.772000,1772
513.772500,1789
513.773000,1800
513.773500,1790
513.774000,1802
513.774500,1817
513.775000,1815
513.775500,1812
513.776000,1833
513.776500,1826
513.777000,1818
513.777500,1826
513.778000,1828
513.778500,1818
513.779000,1827
513.779500,1838
513.780000,1823
513.780500,1808
513.781000,1830
513.781500,1830
513.782000,1836
513.782500,1851
513.783000,1847
513.783500,1830
513.784000,1838
513.784500,1837
513.785000,1824
513.785500,1819
513.786000,1827
513.786500,1807
513.787000,1796
513.787500,1803
513.788000,1809
513.788500,1811
513.789000,1839
513.789500,1843
513.790000,1821
513.790500,1814
513.791000,1822
513.791500,1812
513.792000,1819
513.792500,1844
513.793000,1862
513.793500,1856
513.794000,1861
513.794500,1851
513.795000,1825
513.795500,1807
513.796000,1803
513.796500,1769
513.797000,1746
513.797500,1754
513.798000,1761
513.798500,1758
513.799000,1783
513.799500,1793
513.800000,1798
513.800500,1794
513.801000,1809
513.801500,1801
513.802000,1806
513.802500,1826
513.803000,1838
513.803500,1833
513.804000,1851
513.804500,1857
513.805000,1834
513.805500,1815
513.806000,1822
513.806500,1810
513.807000,1802
513.807500,1827
513.808000,1846
513.808500,1837
513.809000,1840
513.809500,1826
513.810000,1803
513.810500,1805
513.811000,1831
513.811500,1822
513.812000,1809
513.812500,1812
513.813000,1812
513.813500,1806
513.814000,1830
513.814500,1845
513.815000,1835
513.815500,1833
513.816000,1839
513.816500,1810
513.817000,1783
513.817500,1782
513.818000,1780
513.818500,1759
513.819000,1763
513.819500,1744
513.820000,1712
513.820500,1694
513.821000,1733
513.821500,1752
513.822000,1769
513.822500,1798
513.823000,1807
513.823500,1781
513.824000,1802
513.824500,1825
513.825000,1823
513.825500,1820
513.826000,1845
513.826500,1852
513.827000,1861
513.827500,1869
513.828000,1847
513.828500,1817
513.829000,1832
513.829500,1833
513.830000,1798
513.830500,1780
513.831000,1769
513.831500,1746
513.832000,1767
513.832500,1814
513.833000,1827
513.833500,1821
513.834000,1833
513.834500,1854
513.835000,1862
513.835500,1868
513.836000,1875
513.836500,1839
513.837000,1832
513.837500,1868
513.838000,1882
513.838500,1856
513.839000,1867
513.839500,1856
513.840000,1830
513.840500,1798
513.841000,1790
513.841500,1732
513.842000,1661
513.842500,1643
513.843000,1647
513.843500,1658
513.844000,1726
513.844500,1776
513.845000,1779
513.845500,1786
513.846000,1827
513.846500,1839
513.847000,1850
513.847500,1876
513.848000,1884
513.848500,1847
513.849000,1828
513.849500,1798
513.850000,1753
513.850500,1742
513.851000,1759
513.851500,1758
513.852000,1773
513.852500,1795
513.853000,1811
513.853500,1801
513.854000,1842
513.854500,1866
513.855000,1861
513.855500,1871
513.856000,1883
513.856500,1862
513.857000,1842
513.857500,1840
513.858000,1814
513.858500,1804
513.859000,1808
513.859500,1804
513.860000,1772
513.860500,1759
513.861000,1774
513.861500,1777
513.862000,1788
513.862500,1810
513.863000,1791
513.863500,1793
513.864000,1814
513.864500,1839
513.865000,1844
513.865500,1857
513.866000,1860
513.866500,1845
513.867000,1828
513.867500,1826
513.868000,1808
513.868500,1779
513.869000,1775
513.869500,1787
513.870000,1785
513.870500,1806
513.871000,1807
513.871500,1801
513.872000,1793
513.872500,1807
513.873000,1802
513.873500,1792
513.874000,1802
513.874500,1808
513.875000,1797
513.875500,1793
513.876000,1803
513.876500,1787
513.877000,1778
513.877500,1795
513.878000,1806
513.878500,1852
513.879000,1904
513.879500,1919
513.880000,1896
513.880500,1896
513.881000,1897
513.881500,1862
513.882000,1813
513.882500,1772
513.883000,1714
513.883500,1681
513.884000,1707
513.884500,1743
513.885000,1770
513.885500,1800
513.886000,1813
513.886500,1789
513.887000,1778
513.887500,1789
513.888000,1783
513.888500,1781
513.889000,1799
513.889500,1806
513.890000,1792
513.890500,1803
513.891000,1811
513.891500,1800
513.892000,1796
513.892500,1814
513.893000,1808
513.893500,1804
513.894000,1819
513.894500,1823
513.895000,1809
513.895500,1814
513.896000,1819
513.896500,1808
513.897000,1806
513.897500,1828
513.898000,1832
513.898500,1827
513.899000,1837
513.899500,1835
513.900000,1813
513.900500,1818
513.901000,1827
513.901500,1829
513.902000,1826
513.902500,1838
513.903000,1824
513.903500,1811
513.904000,1808
513.904500,1799
513.905000,1767
513.905500,1771
513.906000,1768
513.906500,1759
513.907000,1774
513.907500,1813
513.908000,1834
513.908500,1852
513.909000,1875
513.909500,1875
513.910000,1850
513.910500,1854
513.911000,1862
513.911500,1852
513.912000,1847
513.912500,1847
513.913000,1816
513.913500,1794
513.914000,1787
513.914500,1788
513.915000,1774
513.915500,1789
513.916000,1794
513.916500,1771
513.917000,1753
513.917500,1770
513.918000,1763
513.918500,1770
513.919000,1796
513.919500,1815
513.920000,1808
513.920500,1819
513.921000,1833
513.921500,1842
513.922000,1875
513.922500,1888
513.923000,1842
513.923500,1788
513.924000,1777
513.924500,1778
513.925000,1796
513.925500,1817
513.926000,1826
513.926500,1807
513.927000,1815
513.927500,1808
513.928000,1785
513.928500,1770
513.929000,1790
513.929500,1801
513.930000,1817
513.930500,1828
513.931000,1831
513.931500,1817
513.932000,1830
513.932500,1828
513.933000,1818
513.933500,1819
513.934000,1849
513.934500,1860
513.935000,1851
513.935500,1842
513.936000,1831
513.936500,1842
513.937000,1870
513.937500,1884
513.938000,1883
513.938500,1857
513.939000,1840
513.939500,1797
513.940000,1750
513.940500,1718
513.941000,1684
513.941500,1652
513.942000,1670
513.942500,1682
513.943000,1708
513.943500,1738
513.944000,1762
513.944500,1761
513.945000,1775
513.945500,1794
513.946000,1799
513.946500,1785
513.947000,1793
513.947500,1796
513.948000,1796
513.948500,1815
513.949000,1861
513.949500,1858
513.950000,1863
513.950500,1861
513.951000,1848
513.951500,1824
513.952000,1818
513.952500,1785
513.953000,1732
513.953500,1723
513.954000,1759
513.954500,1780
513.955000,1805
513.955500,1827
513.956000,1822
513.956500,1795
513.957000,1805
513.957500,1808
513.958000,1806
513.958500,1814
513.959000,1835
513.959500,1829
513.960000,1831
513.960500,1845
513.961000,1849
513.961500,1828
513.962000,1843
513.962500,1849
513.963000,1841
513.963500,1842
513.964000,1860
513.964500,1850
513.965000,1846
513.965500,1850
513.966000,1842
513.966500,1807
513.967000,1808
513.967500,1807
513.968000,1789
513.968500,1783
513.969000,1801
513.969500,1785
513.970000,1772
513.970500,1784
513.971000,1770
513.971500,1770
513.972000,1782
513.972500,1804
513.973000,1806
513.973500,1832
513.974000,1836
513.974500,1825
513.975000,1816
513.975500,1821
513.976000,1804
513.976500,1784
513.977000,1796
513.977500,1801
513.978000,1785
513.978500,1799
513.979000,1811
513.979500,1805
513.980000,1802
513.980500,1822
513.981000,1822
513.981500,1822
513.982000,1845
513.982500,1862
513.983000,1854
513.983500,1865
513.984000,1868
513.984500,1841
513.985000,1830
513.985500,1845
513.986000,1836
513.986500,1830
513.987000,1834
513.987500,1825
513.988000,1798
513.988500,1806
513.989000,1803
513.989500,1794
513.990000,1803
513.990500,1820
513.991000,1828
513.991500,1823
513.992000,1822
513.992500,1801
513.993000,1760
513.993500,1751
513.994000,1745
513.994500,1724
513.995000,1722
513.995500,1737
513.996000,1740
513.996500,1756
513.997000,1785
513.997500,1794
513.998000,1774
513.998500,1785
513.999000,1788
513.999500,1809
514.000000,1831
514.000500,1856
514.001000,1845
514.001500,1835
514.002000,1846
514.002500,1865
514.003000,1845
514.003500,1823
514.004000,1784
514.004500,1738
514.005000,1743
514.005500,1788
514.006000,1800
514.006500,1804
514.007000,1821
514.007500,1822
514.008000,1819
514.008500,1838
514.009000,1847
514.009500,1828
514.010000,1819
514.010500,1835
514.011000,1826
514.011500,1814
514.012000,1823
514.012500,1796
514.013000,1783
514.013500,1784
514.014000,1795
514.014500,1801
514.015000,1863
514.015500,1925
514.016000,1990
514.016500,2025
514.017000,2038
514.017500,1994
514.018000,1949
514.018500,1902
514.019000,1827
514.019500,1712
514.020000,1636
514.020500,1589
514.021000,1591
514.021500,1622
514.022000,1662
514.022500,1683
514.023000,1703
514.023500,1742
514.024000,1769
514.024500,1763
514.025000,1780
514.025500,1801
514.026000,1796
514.026500,1792
514.027000,1799
514.027500,1784
514.028000,1766
514.028500,1776
514.029000,1799
514.029500,1797
514.030000,1801
514.030500,1817
514.031000,1828
514.031500,1830
514.032000,1835
514.032500,1822
514.033000,1817
514.033500,1828
514.034000,1836
514.034500,1825
514.035000,1852
514.035500,1874
514.036000,1878
514.036500,1870
514.037000,1882
514.037500,1867
514.038000,1855
514.038500,1858
514.039000,1854
514.039500,1829
514.040000,1824
514.040500,1820
514.041000,1783
514.041500,1744
514.042000,1749
514.042500,1739
514.043000,1733
514.043500,1757
514.044000,1778
514.044500,1777
514.045000,1797
514.045500,1805
514.046000,1795
514.046500,1790
514.047000,1810
514.047500,1804
514.048000,1806
514.048500,1825
514.049000,1828
514.049500,1808
514.050000,1813
514.050500,1819
514.051000,1803
514.051500,1795
514.052000,1812
514.052500,1801
514.053000,1795
514.053500,1807
514.054000,1816
514.054500,1797
514.055000,1810
514.055500,1822
514.056000,1813
514.056500,1807
514.057000,1830
514.057500,1823
514.058000,1813
514.058500,1827
514.059000,1835
514.059500,1817
514.060000,1834
514.060500,1838
514.061000,1823
514.061500,1816
514.062000,1832
514.062500,1822
514.063000,1825
514.063500,1845
514.064000,1825
514.064500,1819
514.065000,1817
514.065500,1813
514.066000,1798
514.066500,1812
514.067000,1793
514.067500,1767
514.068000,1755
514.068500,1779
514.069000,1788
514.069500,1805
514.070000,1839
514.070500,1859
514.071000,1854
514.071500,1871
514.072000,1878
514.072500,1868
514.073000,1867
514.073500,1889
514.074000,1889
514.074500,1875
514.075000,1876
514.075500,1846
514.076000,1794
514.076500,1762
514.077000,1743
514.077500,1692
514.078000,1667
514.078500,1692
514.079000,1708
514.079500,1715
514.080000,1743
514.080500,1758
514.081000,1755
514.081500,1774
514.082000,1808
514.082500,1839
514.083000,1870
514.083500,1909
514.084000,1910
514.084500,1896
514.085000,1891
514.085500,1872
514.086000,1835
514.086500,1827
514.087000,1820
514.087500,1803
514.088000,1787
514.088500,1782
514.089000,1746
514.089500,1721
514.090000,1729
514.090500,1734
514.091000,1733
514.091500,1759
514.092000,1774
514.092500,1772
514.093000,1775
514.093500,1803
514.094000,1808
514.094500,1814
514.095000,1834
514.095500,1831
514.096000,1810
514.096500,1803
514.097000,1793
514.097500,1783
514.098000,1800
514.098500,1805
514.099000,1801
514.099500,1798
514.100000,1817
514.100500,1806
514.101000,1789
514.101500,1805
514.102000,1827
514.102500,1828
514.103000,1842
514.103500,1859
514.104000,1852
514.104500,1859
514.105000,1879
514.105500,1858
514.106000,1827
514.106500,1810
514.107000,1810
514.107500,1798
514.108000,1794
514.108500,1793
514.109000,1782
514.109500,1786
514.110000,1814
514.110500,1815
514.111000,1813
514.111500,1822
514.112000,1820
514.112500,1803
514.113000,1805
514.113500,1798
514.114000,1778
514.114500,1769
514.115000,1794
514.115500,1787
514.116000,1783
514.116500,1800
514.117000,1819
514.117500,1822
514.118000,1836
514.118500,1841
514.119000,1826
514.119500,1820
514.120000,1839
514.120500,1823
514.121000,1820
514.121500,1839
514.122000,1852
514.122500,1834
514.123000,1841
514.123500,1853
514.124000,1856
514.124500,1860
514.125000,1876
514.125500,1867
514.126000,1857
514.126500,1845
514.127000,1822
514.127500,1776
514.128000,1774
514.128500,1776
514.129000,1754
514.129500,1733
514.130000,1748
514.130500,1735
514.131000,1739
514.131500,1754
514.132000,1747
514.132500,1745
514.133000,1756
514.133500,1763
514.134000,1750
514.134500,1777
514.135000,1777
514.135500,1781
514.136000,1782
514.136500,1800
514.137000,1792
514.137500,1797
514.138000,1815
514.138500,1835
514.139000,1831
514.139500,1842
514.140000,1852
514.140500,1847
514.141000,1854
514.141500,1884
514.142000,1869
514.142500,1863
514.143000,1865
514.143500,1856
514.144000,1823
514.144500,1806
514.145000,1780
514.145500,1756
514.146000,1758
514.146500,1806
514.147000,1829
514.147500,1831
514.148000,1838
514.148500,1835
514.149000,1818
514.149500,1818
514.150000,1827
514.150500,1788
514.151000,1751
514.151500,1756
514.152000,1753
514.152500,1750
514.153000,1769
514.153500,1789
514.154000,1779
514.154500,1788
514.155000,1801
514.155500,1799
514.156000,1799
514.156500,1817
514.157000,1813
514.157500,1809
514.158000,1826
514.158500,1834
514.159000,1820
514.159500,1824
514.160000,1831
514.160500,1816
514.161000,1825
514.161500,1843
514.162000,1842
514.162500,1839
514.163000,1850
514.163500,1853
514.164000,1835
514.164500,1835
514.165000,1835
514.165500,1824
514.166000,1813
514.166500,1818
514.167000,1802
514.167500,1797
514.168000,1812
514.168500,1807
514.169000,1777
514.169500,1764
514.170000,1762
514.170500,1753
514.171000,1745
514.171500,1759
514.172000,1758
514.172500,1767
514.173000,1793
514.173500,1803
514.174000,1791
514.174500,1803
514.175000,1828
514.175500,1817
514.176000,1811
514.176500,1821
514.177000,1823
514.177500,1822
514.178000,1835
514.178500,1841
514.179000,1832
514.179500,1854
514.180000,1875
514.180500,1856
514.181000,1845
514.181500,1849
514.182000,1822
514.182500,1814
514.183000,1829
514.183500,1834
514.184000,1818
514.184500,1822
514.185000,1817
514.185500,1788
514.186000,1764
514.186500,1769
514.187000,1770
514.187500,1775
514.188000,1798
514.188500,1811
514.189000,1810
514.189500,1824
514.190000,1840
514.190500,1839
514.191000,1829
514.191500,1839
514.192000,1821
514.192500,1806
514.193000,1808
514.193500,1801
514.194000,1779
514.194500,1777
514.195000,1774
514.195500,1736
514.196000,1729
514.196500,1755
514.197000,1764
514.197500,1767
514.198000,1786
514.198500,1798
514.199000,1789
514.199500,1803
514.200000,1821
514.200500,1821
514.201000,1831
514.201500,1854
514.202000,1847
514.202500,1837
514.203000,1842
514.203500,1836
514.204000,1815
514.204500,1821
514.205000,1821
514.205500,1802
514.206000,1800
514.206500,1817
514.207000,1815
514.207500,1821
514.208000,1836
514.208500,1834
514.209000,1813
514.209500,1840
514.210000,1850
514.210500,1837
514.211000,1827
514.211500,1833
514.212000,1824
514.212500,1820
514.213000,1826
514.213500,1812
514.214000,1781
514.214500,1782
514.215000,1788
514.215500,1770
514.216000,1742
514.216500,1753
514.217000,1766
514.217500,1791
514.218000,1836
514.218500,1869
514.219000,1862
514.219500,1863
514.220000,1860
514.220500,1827
514.221000,1802
514.221500,1806
514.222000,1795
514.222500,1789
514.223000,1788
514.223500,1782
514.224000,1752
514.224500,1756
514.225000,1769
514.225500,1762
514.226000,1762
514.226500,1783
514.227000,1782
514.227500,1781
514.228000,1797
514.228500,1803
514.229000,1790
514.229500,1803
514.230000,1812
514.230500,1809
514.231000,1804
514.231500,1817
514.232000,1810
514.232500,1807
514.233000,1822
514.233500,1826
514.234000,1806
514.234500,1814
514.235000,1821
514.235500,1806
514.236000,1805
514.236500,1824
514.237000,1815
514.237500,1809
514.238000,1829
514.238500,1841
514.239000,1815
514.239500,1818
514.240000,1815
514.240500,1798
514.241000,1790
514.241500,1804
514.242000,1789
514.242500,1784
514.243000,1796
514.243500,1805
514.244000,1787
514.244500,1800
514.245000,1804
514.245500,1792
514.246000,1790
514.246500,1807
514.247000,1810
514.247500,1826
514.248000,1859
514.248500,1874
514.249000,1857
514.249500,1864
514.250000,1866
514.250500,1847
514.251000,1838
514.251500,1849
514.252000,1834
514.252500,1826
514.253000,1827
514.253500,1789
514.254000,1775
514.254500,1787
514.255000,1800
514.255500,1787
514.256000,1815
514.256500,1818
514.257000,1807
514.257500,1797
514.258000,1805
514.258500,1795
514.259000,1790
514.259500,1802
514.260000,1804
514.260500,1778
514.261000,1770
514.261500,1778
514.262000,1763
514.262500,1751
514.263000,1766
514.263500,1769
514.264000,1777
514.264500,1801
514.265000,1819
514.265500,1808
514.266000,1819
514.266500,1821
514.267000,1806
514.267500,1800
514.268000,1820
514.268500,1814
514.269000,1814
514.269500,1828
514.270000,1839
514.270500,1824
514.271000,1832
514.271500,1822
514.272000,1795
514.272500,1776
514.273000,1789
514.273500,1787
514.274000,1795
514.274500,1820
514.275000,1823
514.275500,1801
514.276000,1816
514.276500,1839
514.277000,1848
514.277500,1862
514.278000,1886
514.278500,1876
514.279000,1868
514.279500,1877
514.280000,1872
514.280500,1850
514.281000,1851
514.281500,1839
514.282000,1831
514.282500,1817
514.283000,1817
514.283500,1788
514.284000,1770
514.284500,1773
514.285000,1773
514.285500,1742
514.286000,1744
514.286500,1749
514.287000,1734
514.287500,1749
514.288000,1757
514.288500,1752
514.289000,1750
514.289500,1767
514.290000,1762
514.290500,1762
514.291000,1785
514.291500,1810
514.292000,1808
514.292500,1829
514.293000,1830
514.293500,1826
514.294000,1823
514.294500,1840
514.295000,1834
514.295500,1839
514.296000,1859
514.296500,1872
514.297000,1861
514.297500,1889
514.298000,1897
514.298500,1908
514.299000,1924
514.299500,1936
514.300000,1916
514.300500,1896
514.301000,1876
514.301500,1851
514.302000,1807
514.302500,1785
514.303000,1763
514.303500,1729
514.304000,1701
514.304500,1706
514.305000,1682
514.305500,1675
514.306000,1689
514.306500,1710
514.307000,1711
514.307500,1726
514.308000,1754
514.308500,1754
514.309000,1750
514.309500,1761
514.310000,1762
514.310500,1766
514.311000,1778
514.311500,1793
514.312000,1790
514.312500,1796
514.313000,1833
514.313500,1838
514.314000,1840
514.314500,1857
514.315000,1864
514.315500,1851
514.316000,1857
514.316500,1859
514.317000,1842
514.317500,1839
514.318000,1852
514.318500,1834
514.319000,1814
514.319500,1816
514.320000,1815
514.320500,1792
514.321000,1803
514.321500,1809
514.322000,1797
514.322500,1800
514.323000,1807
514.323500,1791
514.324000,1778
514.324500,1796
514.325000,1798
514.325500,1773
514.326000,1784
514.326500,1791
514.327000,1783
514.327500,1785
514.328000,1804
514.328500,1799
514.329000,1802
514.329500,1818
514.330000,1809
514.330500,1806
514.331000,1818
514.331500,1827
514.332000,1820
514.332500,1830
514.333000,1849
514.333500,1838
514.334000,1833
514.334500,1846
514.335000,1836
514.335500,1834
514.336000,1841
514.336500,1841
514.337000,1820
514.337500,1828
514.338000,1825
514.338500,1810
514.339000,1802
514.339500,1813
514.340000,1803
514.340500,1795
514.341000,1802
514.341500,1804
514.342000,1792
514.342500,1803
514.343000,1800
514.343500,1789
514.344000,1779
514.344500,1787
514.345000,1775
514.345500,1770
514.346000,1792
514.346500,1802
514.347000,1797
514.347500,1821
514.348000,1818
514.348500,1808
514.349000,1821
514.349500,1863
514.350000,1876
514.350500,1859
514.351000,1857
514.351500,1854
514.352000,1822
514.352500,1799
514.353000,1793
514.353500,1762
514.354000,1749
514.354500,1765
514.355000,1770
514.355500,1781
514.356000,1809
514.356500,1823
514.357000,1818
514.357500,1833
514.358000,1834
514.358500,1808
514.359000,1785
514.359500,1789
514.360000,1770
514.360500,1768
514.361000,1787
514.361500,1808
514.362000,1819
514.362500,1855
514.363000,1881
514.363500,1880
514.364000,1867
514.364500,1877
514.365000,1861
514.365500,1848
514.366000,1851
514.366500,1840
514.367000,1812
514.367500,1803
514.368000,1797
514.368500,1782
514.369000,1773
514.369500,1783
514.370000,1779
514.370500,1771
514.371000,1778
514.371500,1773
514.372000,1748
514.372500,1760
514.373000,1778
514.373500,1781
514.374000,1795
514.374500,1821
514.375000,1819
514.375500,1814
514.376000,1827
514.376500,1833
514.377000,1816
514.377500,1819
514.378000,1819
514.378500,1812
514.379000,1800
514.379500,1802
514.380000,1770
514.380500,1747
514.381000,1766
514.381500,1780
514.382000,1771
514.382500,1783
514.383000,1785
514.383500,1785
514.384000,1798
514.384500,1819
514.385000,1804
514.385500,1793
514.386000,1809
514.386500,1817
514.387000,1811
514.387500,1827
514.388000,1833
514.388500,1820
514.389000,1827
514.389500,1819
514.390000,1805
514.390500,1801
514.391000,1823
514.391500,1820
514.392000,1823
514.392500,1836
514.393000,1840
514.393500,1818
514.394000,1837
514.394500,1826
514.395000,1810
514.395500,1800
514.396000,1809
514.396500,1792
514.397000,1785
514.397500,1793
514.398000,1797
514.398500,1781
514.399000,1798
514.399500,1793
514.400000,1785
514.400500,1785
514.401000,1805
514.401500,1799
514.402000,1798
514.402500,1820
514.403000,1834
514.403500,1822
514.404000,1830
514.404500,1838
514.405000,1823
514.405500,1816
514.406000,1827
514.406500,1810
514.407000,1801
514.407500,1819
514.408000,1833
514.408500,1820
514.409000,1828
514.409500,1838
514.410000,1841
514.410500,1865
514.411000,1898
514.411500,1883
514.412000,1867
514.412500,1871
514.413000,1862
514.413500,1828
514.414000,1818
514.414500,1808
514.415000,1788
514.415500,1773
514.416000,1771
514.416500,1745
514.417000,1724
514.417500,1730
514.418000,1736
514.418500,1728
514.419000,1747
514.419500,1755
514.420000,1747
514.420500,1749
514.421000,1771
514.421500,1771
514.422000,1778
514.422500,1801
514.423000,1811
514.423500,1794
514.424000,1811
514.424500,1820
514.425000,1818
514.425500,1815
514.426000,1841
514.426500,1834
514.427000,1827
514.427500,1839
514.428000,1837
514.428500,1839
514.429000,1858
514.429500,1869
514.430000,1856
514.430500,1862
514.431000,1851
514.431500,1828
514.432000,1801
514.432500,1792
514.433000,1769
514.433500,1763
514.434000,1784
514.434500,1800
514.435000,1793
514.435500,1804
514.436000,1799
514.436500,1786
514.437000,1783
514.437500,1801
514.438000,1799
514.438500,1799
514.439000,1806
514.439500,1819
514.440000,1817
514.440500,1848
514.441000,1848
514.441500,1848
514.442000,1837
514.442500,1835
514.443000,1824
514.443500,1812
514.444000,1822
514.444500,1828
514.445000,1809
514.445500,1798
514.446000,1791
514.446500,1768
514.447000,1761
514.447500,1774
514.448000,1772
514.448500,1775
514.449000,1794
514.449500,1795
514.450000,1780
514.450500,1798
514.451000,1811
514.451500,1807
514.452000,1808
514.452500,1822
514.453000,1809
514.453500,1795
514.454000,1801
514.454500,1813
514.455000,1808
514.455500,1835
514.456000,1863
514.456500,1862
514.457000,1871
514.457500,1904
514.458000,1890
514.458500,1871
514.459000,1863
514.459500,1847
514.460000,1811
514.460500,1810
514.461000,1807
514.461500,1776
514.462000,1761
514.462500,1767
514.463000,1751
514.463500,1735
514.464000,1750
514.464500,1760
514.465000,1754
514.465500,1778
514.466000,1792
514.466500,1778
514.467000,1778
514.467500,1795
514.468000,1785
514.468500,1780
514.469000,1798
514.469500,1804
514.470000,1793
514.470500,1808
514.471000,1824
514.471500,1814
514.472000,1822
514.472500,1838
514.473000,1836
514.473500,1834
514.474000,1851
514.474500,1834
514.475000,1833
514.475500,1840
514.476000,1847
514.476500,1854
514.477000,1877
514.477500,1889
514.478000,1870
514.478500,1853
514.479000,1850
514.479500,1816
514.480000,1803
514.480500,1803
514.481000,1800
514.481500,1773
514.482000,1772
514.482500,1746
514.483000,1718
514.483500,1712
514.484000,1748
514.484500,1755
514.485000,1773
514.485500,1790
514.486000,1792
514.486500,1773
514.487000,1787
514.487500,1782
514.488000,1776
514.488500,1781
514.489000,1803
514.489500,1798
514.490000,1803
514.490500,1811
514.491000,1818
514.491500,1808
514.492000,1839
514.492500,1845
514.493000,1839
514.493500,1833
514.494000,1842
514.494500,1825
514.495000,1811
514.495500,1810
514.496000,1805
514.496500,1782
514.497000,1783
514.497500,1799
514.498000,1790
514.498500,1784
514.499000,1799
514.499500,1792
514.500000,1784
514.500500,1806
514.501000,1814
514.501500,1799
514.502000,1808
514.502500,1818
514.503000,1807
514.503500,1801
514.504000,1812
514.504500,1806
514.505000,1802
514.505500,1811
514.506000,1821
514.506500,1804
514.507000,1804
514.507500,1823
514.508000,1820
514.508500,1826
514.509000,1843
514.509500,1831
514.510000,1827
514.510500,1835
514.511000,1848
514.511500,1836
514.512000,1843
514.512500,1856
514.513000,1842
514.513500,1834
514.514000,1846
514.514500,1832
514.515000,1811
514.515500,1815
514.516000,1823
514.516500,1816
514.517000,1824
514.517500,1836
514.518000,1829
514.518500,1832
514.519000,1847
514.519500,1838
514.520000,1824
514.520500,1824
514.521000,1810
514.521500,1776
514.522000,1778
514.522500,1779
514.523000,1768
514.523500,1757
514.524000,1754
514.524500,1727
514.525000,1721
514.525500,1736
514.526000,1747
514.526500,1738
514.527000,1748
514.527500,1771
514.528000,1773
514.528500,1789
514.529000,1834
514.529500,1884
514.530000,1923
514.530500,1952
514.531000,1958
514.531500,1932
514.532000,1928
514.532500,1910
514.533000,1875
514.533500,1840
514.534000,1842
514.534500,1821
514.535000,1790
514.535500,1767
514.536000,1726
514.536500,1675
514.537000,1676
514.537500,1695
514.538000,1702
514.538500,1719
514.539000,1745
514.539500,1744
514.540000,1743
514.540500,1756
514.541000,1765
514.541500,1754
514.542000,1771
514.542500,1788
514.543000,1786
514.543500,1795
514.544000,1825
514.544500,1823
514.545000,1828
514.545500,1840
514.546000,1849
514.546500,1826
514.547000,1838
514.547500,1839
514.548000,1831
514.548500,1825
514.549000,1839
514.549500,1819
514.550000,1807
514.550500,1815
514.551000,1819
514.551500,1794
514.552000,1802
514.552500,1807
514.553000,1795
514.553500,1793
514.554000,1812
514.554500,1807
514.555000,1810
514.555500,1829
514.556000,1832
514.556500,1810
514.557000,1820
514.557500,1825
514.558000,1816
514.558500,1828
514.559000,1865
514.559500,1877
514.560000,1895
514.560500,1916
514.561000,1915
514.561500,1870
514.562000,1858
514.562500,1841
514.563000,1806
514.563500,1780
514.564000,1777
514.564500,1744
514.565000,1714
514.565500,1716
514.566000,1729
514.566500,1738
514.567000,1781
514.567500,1799
514.568000,1786
514.568500,1800
514.569000,1810
514.569500,1801
514.570000,1798
514.570500,1810
514.571000,1786
514.571500,1767
514.572000,1774
514.572500,1784
514.573000,1782
514.573500,1814
514.574000,1824
514.574500,1818
514.575000,1822
514.575500,1841
514.576000,1843
514.576500,1852
514.577000,1875
514.577500,1882
514.578000,1866
514.578500,1859
514.579000,1856
514.579500,1833
514.580000,1812
514.580500,1821
514.581000,1808
514.581500,1797
514.582000,1794
514.582500,1782
514.583000,1751
514.583500,1748
514.584000,1758
514.584500,1756
514.585000,1766
514.585500,1786
514.586000,1783
514.586500,1774
514.587000,1790
514.587500,1798
514.588000,1786
514.588500,1797
514.589000,1803
514.589500,1796
514.590000,1794
514.590500,1813
514.591000,1813
514.591500,1824
514.592000,1872
514.592500,1905
514.593000,1899
514.593500,1905
514.594000,1907
514.594500,1886
514.595000,1876
514.595500,1872
514.596000,1845
514.596500,1817
514.597000,1805
514.597500,1782
514.598000,1736
514.598500,1728
514.599000,1747
514.599500,1764
514.600000,1788
514.600500,1807
514.601000,1802
514.601500,1793
514.602000,1802
514.602500,1783
514.603000,1782
514.603500,1798
514.604000,1809
514.604500,1805
514.605000,1815
514.605500,1810
514.606000,1800
514.606500,1802
514.607000,1822
514.607500,1813
514.608000,1805
514.608500,1809
514.609000,1809
514.609500,1793
514.610000,1799
514.610500,1804
514.611000,1783
514.611500,1764
514.612000,1779
514.612500,1783
514.613000,1786
514.613500,1805
514.614000,1817
514.614500,1810
514.615000,1810
514.615500,1813
514.616000,1792
514.616500,1785
514.617000,1813
514.617500,1820
514.618000,1822
514.618500,1842
514.619000,1845
514.619500,1823
514.620000,1830
514.620500,1810
514.621000,1773
514.621500,1747
514.622000,1759
514.622500,1772
514.623000,1778
514.623500,1803
514.624000,1811
514.624500,1796
514.625000,1824
514.625500,1829
514.626000,1814
514.626500,1809
514.627000,1829
514.627500,1833
514.628000,1832
514.628500,1831
514.629000,1822
514.629500,1795
514.630000,1814
514.630500,1834
514.631000,1829
514.631500,1826
514.632000,1847
514.632500,1840
514.633000,1832
514.633500,1835
514.634000,1829
514.634500,1805
514.635000,1813
514.635500,1812
514.636000,1790
514.636500,1762
514.637000,1759
514.637500,1743
514.638000,1743
514.638500,1763
514.639000,1774
514.639500,1762
514.640000,1783
514.640500,1792
514.641000,1791
514.641500,1797
514.642000,1819
514.642500,1814
514.643000,1809
514.643500,1824
514.644000,1830
514.644500,1813
514.645000,1826
514.645500,1835
514.646000,1823
514.646500,1818
514.647000,1831
514.647500,1819
514.648000,1805
514.648500,1815
514.649000,1801
514.649500,1800
514.650000,1807
514.650500,1809
514.651000,1788
514.651500,1782
514.652000,1802
514.652500,1810
514.653000,1829
514.653500,1864
514.654000,1867
514.654500,1870
514.655000,1884
514.655500,1888
514.656000,1876
514.656500,1892
514.657000,1889
514.657500,1874
514.658000,1863
514.658500,1863
514.659000,1831
514.659500,1815
514.660000,1823
514.660500,1827
514.661000,1814
514.661500,1815
514.662000,1807
514.662500,1775
514.663000,1735
514.663500,1727
514.664000,1702
514.664500,1697
514.665000,1705
514.665500,1710
514.666000,1698
514.666500,1717
514.667000,1727
514.667500,1729
514.668000,1736
514.668500,1761
514.669000,1764
514.669500,1779
514.670000,1808
514.670500,1833
514.671000,1834
514.671500,1860
514.672000,1853
514.672500,1843
514.673000,1835
514.673500,1848
514.674000,1835
514.674500,1826
514.675000,1834
514.675500,1839
514.676000,1816
514.676500,1829
514.677000,1813
514.677500,1798
514.678000,1790
514.678500,1801
514.679000,1790
514.679500,1784
514.680000,1798
514.680500,1805
514.681000,1795
514.681500,1816
514.682000,1808
514.682500,1799
514.683000,1798
514.683500,1811
514.684000,1807
514.684500,1797
514.685000,1811
514.685500,1819
514.686000,1808
514.686500,1816
514.687000,1834
514.687500,1826
514.688000,1818
514.688500,1832
514.689000,1821
514.689500,1820
514.690000,1833
514.690500,1827
514.691000,1805
514.691500,1812
514.692000,1817
514.692500,1808
514.693000,1817
514.693500,1847
514.694000,1863
514.694500,1876
514.695000,1895
514.695500,1896
514.696000,1876
514.696500,1888
514.697000,1882
514.697500,1858
514.698000,1839
514.698500,1841
514.699000,1808
514.699500,1778
514.700000,1770
514.700500,1743
514.701000,1700
514.701500,1696
514.702000,1712
514.702500,1723
514.703000,1740
514.703500,1768
514.704000,1777
514.704500,1785
514.705000,1813
514.705500,1816
514.706000,1793
514.706500,1797
514.707000,1794
514.707500,1785
514.708000,1779
514.708500,1792
514.709000,1797
514.709500,1814
514.710000,1844
514.710500,1835
514.711000,1832
514.711500,1843
514.712000,1849
514.712500,1839
514.713000,1852
514.713500,1873
514.714000,1866
514.714500,1867
514.715000,1880
514.715500,1853
514.716000,1847
514.716500,1851
514.717000,1846
514.717500,1817
514.718000,1791
514.718500,1776
514.719000,1738
514.719500,1708
514.720000,1726
514.720500,1731
514.721000,1738
514.721500,1753
514.722000,1769
514.722500,1774
514.723000,1816
514.723500,1836
514.724000,1845
514.724500,1849
514.725000,1868
514.725500,1850
514.726000,1842
514.726500,1851
514.727000,1858
514.727500,1842
514.728000,1846
514.728500,1835
514.729000,1802
514.729500,1777
514.730000,1792
514.730500,1778
514.731000,1774
514.731500,1784
514.732000,1788
514.732500,1771
514.733000,1772
514.733500,1786
514.734000,1771
514.734500,1757
514.735000,1766
514.735500,1771
514.736000,1792
514.736500,1826
514.737000,1854
514.737500,1849
514.738000,1857
514.738500,1859
514.739000,1845
514.739500,1830
514.740000,1831
514.740500,1805
514.741000,1789
514.741500,1797
514.742000,1798
514.742500,1774
514.743000,1777
514.743500,1778
514.744000,1762
514.744500,1751
514.745000,1780
514.745500,1777
514.746000,1769
514.746500,1776
514.747000,1784
514.747500,1774
514.748000,1796
514.748500,1803
514.749000,1791
514.749500,1795
514.750000,1826
514.750500,1830
514.751000,1826
514.751500,1823
514.752000,1811
514.752500,1793
514.753000,1805
514.753500,1816
514.754000,1814
514.754500,1818
514.755000,1842
514.755500,1828
514.756000,1819
514.756500,1827
514.757000,1825
514.757500,1802
514.758000,1804
514.758500,1802
514.759000,1797
514.759500,1806
514.760000,1836
514.760500,1830
514.761000,1829
514.761500,1839
514.762000,1833
514.762500,1811
514.763000,1821
514.763500,1824
514.764000,1814
514.764500,1808
514.765000,1826
514.765500,1804
514.766000,1784
514.766500,1791
514.767000,1804
514.767500,1796
514.768000,1808
514.768500,1813
514.769000,1812
514.769500,1818
514.770000,1837
514.770500,1823
514.771000,1816
514.771500,1833
514.772000,1833
514.772500,1808
514.773000,1810
514.773500,1804
514.774000,1780
514.774500,1769
514.775000,1778
514.775500,1759
514.776000,1751
514.776500,1771
514.777000,1784
514.777500,1776
514.778000,1795
514.778500,1802
514.779000,1796
514.779500,1792
514.780000,1813
514.780500,1814
514.781000,1827
514.781500,1846
514.782000,1837
514.782500,1856
514.783000,1908
514.783500,1946
514.784000,1936
514.784500,1926
514.785000,1895
514.785500,1860
514.786000,1847
514.786500,1868
514.787000,1853
514.787500,1836
514.788000,1830
514.788500,1827
514.789000,1788
514.789500,1781
514.790000,1753
514.790500,1719
514.791000,1718
514.791500,1745
514.792000,1739
514.792500,1725
514.793000,1734
514.793500,1736
514.794000,1725
514.794500,1753
514.795000,1818
514.795500,1845
514.796000,1857
514.796500,1866
514.797000,1857
514.797500,1854
514.798000,1850
514.798500,1831
514.799000,1786
514.799500,1768
514.800000,1757
514.800500,1748
514.801000,1754
514.801500,1791
514.802000,1799
514.802500,1804
514.803000,1824
514.803500,1828
514.804000,1811
514.804500,1794
514.805000,1797
514.805500,1784
514.806000,1787
514.806500,1816
514.807000,1831
514.807500,1836
514.808000,1844
514.808500,1846
514.809000,1826
514.809500,1819
514.810000,1818
514.810500,1798
514.811000,1786
514.811500,1794
514.812000,1780
514.812500,1755
514.813000,1753
514.813500,1761
514.814000,1759
514.814500,1769
514.815000,1800
514.815500,1797
514.816000,1797
514.816500,1811
514.817000,1805
514.817500,1799
514.818000,1811
514.818500,1813
514.819000,1799
514.819500,1799
514.820000,1811
514.820500,1804
514.821000,1811
514.821500,1832
514.822000,1831
514.822500,1830
514.823000,1841
514.823500,1842
514.824000,1822
514.824500,1816
514.825000,1820
514.825500,1802
514.826000,1790
514.826500,1799
514.827000,1797
514.827500,1791
514.828000,1807
514.828500,1815
514.829000,1800
514.829500,1808
514.830000,1831
514.830500,1826
514.831000,1834
514.831500,1872
514.832000,1882
514.832500,1874
514.833000,1877
514.833500,1874
514.834000,1847
514.834500,1845
514.835000,1842
514.835500,1812
514.836000,1788
514.836500,1779
514.837000,1744
514.837500,1719
514.838000,1724
514.838500,1738
514.839000,1740
514.839500,1765
514.840000,1783
514.840500,1780
514.841000,1783
514.841500,1801
514.842000,1796
514.842500,1793
514.843000,1809
514.843500,1818
514.844000,1800
514.844500,1815
514.845000,1828
514.845500,1826
514.846000,1829
514.846500,1843
514.847000,1830
514.847500,1826
514.848000,1839
514.848500,1839
514.849000,1816
514.849500,1817
514.850000,1813
514.850500,1790
514.851000,1778
514.851500,1793
514.852000,1793
514.852500,1797
514.853000,1815
514.853500,1816
514.854000,1804
514.854500,1835
514.855000,1866
514.855500,1863
514.856000,1868
514.856500,1885
514.857000,1869
514.857500,1855
514.858000,1857
514.858500,1851
514.859000,1816
514.859500,1809
514.860000,1793
514.860500,1751
514.861000,1738
514.861500,1761
514.862000,1765
514.862500,1770
514.863000,1786
514.863500,1793
514.864000,1778
514.864500,1784
514.865000,1791
514.865500,1782
514.866000,1779
514.866500,1794
514.867000,1790
514.867500,1785
514.868000,1804
514.868500,1820
514.869000,1805
514.869500,1810
514.870000,1821
514.870500,1813
514.871000,1804
514.871500,1827
514.872000,1859
514.872500,1881
514.873000,1900
514.873500,1898
514.874000,1884
514.874500,1890
514.875000,1870
514.875500,1801
514.876000,1734
514.876500,1714
514.877000,1698
514.877500,1705
514.878000,1739
514.878500,1775
514.879000,1790
514.879500,1819
514.880000,1839
514.880500,1834
514.881000,1835
514.881500,1848
514.882000,1830
514.882500,1805
514.883000,1798
514.883500,1793
514.884000,1776
514.884500,1801
514.885000,1834
514.885500,1866
514.886000,1880
514.886500,1900
514.887000,1891
514.887500,1871
514.888000,1863
514.888500,1843
514.889000,1801
514.889500,1794
514.890000,1770
514.890500,1733
514.891000,1708
514.891500,1714
514.892000,1704
514.892500,1693
514.893000,1713
514.893500,1734
514.894000,1733
514.894500,1770
514.895000,1795
514.895500,1791
514.896000,1797
514.896500,1826
514.897000,1819
514.897500,1821
514.898000,1833
514.898500,1835
514.899000,1812
514.899500,1828
514.900000,1842
514.900500,1835
514.901000,1834
514.901500,1847
514.902000,1831
514.902500,1818
514.903000,1828
514.903500,1836
514.904000,1819
514.904500,1841
514.905000,1857
514.905500,1846
514.906000,1841
514.906500,1847
514.907000,1833
514.907500,1826
514.908000,1846
514.908500,1844
514.909000,1814
514.909500,1812
514.910000,1807
514.910500,1780
514.911000,1761
514.911500,1766
514.912000,1751
514.912500,1740
514.913000,1749
514.913500,1757
514.914000,1759
514.914500,1786
514.915000,1805
514.915500,1801
514.916000,1812
514.916500,1838
514.917000,1842
514.917500,1842
514.918000,1853
514.918500,1830
514.919000,1823
514.919500,1826
514.920000,1820
514.920500,1787
514.921000,1795
514.921500,1796
514.922000,1802
514.922500,1795
514.923000,1807
514.923500,1816
514.924000,1823
514.924500,1846
514.925000,1854
514.925500,1834
514.926000,1824
514.926500,1836
514.927000,1825
514.927500,1831
514.928000,1852
514.928500,1842
514.929000,1829
514.929500,1821
514.930000,1804
514.930500,1784
514.931000,1778
514.931500,1757
514.932000,1732
514.932500,1721
514.933000,1736
514.933500,1733
514.934000,1739
514.934500,1766
514.935000,1790
514.935500,1786
514.936000,1815
514.936500,1846
514.937000,1850
514.937500,1852
514.938000,1865
514.938500,1860
514.939000,1864
514.939500,1875
514.940000,1869
514.940500,1844
514.941000,1845
514.941500,1837
514.942000,1812
514.942500,1781
514.943000,1757
514.943500,1732
514.944000,1731
514.944500,1764
514.945000,1790
514.945500,1776
514.946000,1792
514.946500,1799
514.947000,1795
514.947500,1795
514.948000,1832
514.948500,1848
514.949000,1852
514.949500,1866
514.950000,1873
514.950500,1844
514.951000,1846
514.951500,1836
514.952000,1816
514.952500,1808
514.953000,1818
514.953500,1799
514.954000,1778
514.954500,1776
514.955000,1783
514.955500,1775
514.956000,1791
514.956500,1803
514.957000,1799
514.957500,1798
514.958000,1835
514.958500,1843
514.959000,1836
514.959500,1845
514.960000,1857
514.960500,1854
514.961000,1875
514.961500,1881
514.962000,1870
514.962500,1860
514.963000,1866
514.963500,1840
514.964000,1810
514.964500,1795
514.965000,1787
514.965500,1758
514.966000,1753
514.966500,1736
514.967000,1710
514.967500,1696
514.968000,1710
514.968500,1706
514.969000,1717
514.969500,1742
514.970000,1754
514.970500,1755
514.971000,1780
514.971500,1793
514.972000,1786
514.972500,1792
514.973000,1818
514.973500,1813
514.974000,1805
514.974500,1804
514.975000,1798
514.975500,1776
514.976000,1805
514.976500,1826
514.977000,1819
514.977500,1817
514.978000,1839
514.978500,1835
514.979000,1833
514.979500,1856
514.980000,1866
514.980500,1844
514.981000,1847
514.981500,1840
514.982000,1835
514.982500,1845
514.983000,1848
514.983500,1831
514.984000,1815
514.984500,1828
514.985000,1816
514.985500,1826
514.986000,1837
514.986500,1854
514.987000,1875
514.987500,1900
514.988000,1894
514.988500,1867
514.989000,1853
514.989500,1864
514.990000,1839
514.990500,1812
514.991000,1791
514.991500,1753
514.992000,1716
514.992500,1731
514.993000,1742
514.993500,1757
514.994000,1775
514.994500,1797
514.995000,1784
514.995500,1768
514.996000,1765
514.996500,1755
514.997000,1737
514.997500,1751
514.998000,1764
514.998500,1759
514.999000,1762
514.999500,1785
515.000000,1786
515.000500,1777
515.001000,1794
515.001500,1805
515.002000,1798
515.002500,1815
515.003000,1824
515.003500,1819
515.004000,1824
515.004500,1849
515.005000,1854
515.005500,1854
515.006000,1864
515.006500,1867
515.007000,1857
515.007500,1865
515.008000,1872
515.008500,1853
515.009000,1834
515.009500,1834
515.010000,1822
515.010500,1803
515.011000,1801
515.011500,1798
515.012000,1780
515.012500,1789
515.013000,1789
515.013500,1774
515.014000,1768
515.014500,1785
515.015000,1784
515.015500,1789
515.016000,1809
515.016500,1817
515.017000,1809
515.017500,1818
515.018000,1821
515.018500,1813
515.019000,1811
515.019500,1833
515.020000,1828
515.020500,1814
515.021000,1818
515.021500,1814
515.022000,1792
515.022500,1798
515.023000,1803
515.023500,1794
515.024000,1796
515.024500,1811
515.025000,1809
515.025500,1799
515.026000,1807
515.026500,1815
515.027000,1805
515.027500,1809
515.028000,1812
515.028500,1797
515.029000,1786
515.029500,1800
515.030000,1805
515.030500,1823
515.031000,1863
515.031500,1879
515.032000,1868
515.032500,1886
515.033000,1894
515.033500,1874
515.034000,1854
515.034500,1852
515.035000,1839
515.035500,1821
515.036000,1809
515.036500,1785
515.037000,1748
515.037500,1749
515.038000,1761
515.038500,1759
515.039000,1755
515.039500,1769
515.040000,1763
515.040500,1760
515.041000,1783
515.041500,1796
515.042000,1787
515.042500,1799
515.043000,1815
515.043500,1800
515.044000,1793
515.044500,1809
515.045000,1804
515.045500,1791
515.046000,1800
515.046500,1803
515.047000,1791
515.047500,1800
515.048000,1819
515.048500,1820
515.049000,1820
515.049500,1832
515.050000,1818
515.050500,1794
515.051000,1781
515.051500,1772
515.052000,1769
515.052500,1796
515.053000,1808
515.053500,1800
515.054000,1802
515.054500,1838
515.055000,1848
515.055500,1849
515.056000,1869
515.056500,1873
515.057000,1851
515.057500,1853
515.058000,1827
515.058500,1779
515.059000,1740
515.059500,1744
515.060000,1755
515.060500,1779
515.061000,1810
515.061500,1811
515.062000,1783
515.062500,1794
515.063000,1798
515.063500,1780
515.064000,1778
515.064500,1797
515.065000,1797
515.065500,1796
515.066000,1809
515.066500,1797
515.067000,1791
515.067500,1802
515.068000,1806
515.068500,1792
515.069000,1795
515.069500,1821
515.070000,1841
515.070500,1865
515.071000,1896
515.071500,1887
515.072000,1875
515.072500,1872
515.073000,1858
515.073500,1809
515.074000,1790
515.074500,1771
515.075000,1752
515.075500,1757
515.076000,1786
515.076500,1780
515.077000,1774
515.077500,1786
515.078000,1795
515.078500,1784
515.079000,1808
515.079500,1842
515.080000,1874
515.080500,1910
515.081000,1934
515.081500,1921
515.082000,1902
515.082500,1904
515.083000,1892
515.083500,1856
515.084000,1848
515.084500,1825
515.085000,1786
515.085500,1743
515.086000,1712
515.086500,1664
515.087000,1656
515.087500,1696
515.088000,1734
515.088500,1735
515.089000,1759
515.089500,1769
515.090000,1758
515.090500,1756
515.091000,1780
515.091500,1781
515.092000,1788
515.092500,1811
515.093000,1807
515.093500,1806
515.094000,1822
515.094500,1830
515.095000,1819
515.095500,1831
515.096000,1866
515.096500,1859
515.097000,1848
515.097500,1862
515.098000,1853
515.098500,1843
515.099000,1849
515.099500,1844
515.100000,1823
515.100500,1830
515.101000,1815
515.101500,1783
515.102000,1765
515.102500,1777
515.103000,1772
515.103500,1778
515.104000,1798
515.104500,1815
515.105000,1806
515.105500,1826
515.106000,1808
515.106500,1784
515.107000,1769
515.107500,1786
515.108000,1783
515.108500,1782
515.109000,1797
515.109500,1806
515.110000,1793
515.110500,1801
515.111000,1814
515.111500,1811
515.112000,1809
515.112500,1826
515.113000,1816
515.113500,1813
515.114000,1823
515.114500,1826
515.115000,1819
515.115500,1819
515.116000,1836
515.116500,1826
515.117000,1820
515.117500,1832
515.118000,1816
515.118500,1802
515.119000,1804
515.119500,1799
515.120000,1778
515.120500,1785
515.121000,1801
515.121500,1783
515.122000,1778
515.122500,1803
515.123000,1810
515.123500,1810
515.124000,1822
515.124500,1823
515.125000,1806
515.125500,1825
515.126000,1836
515.126500,1831
515.127000,1832
515.127500,1850
515.128000,1846
515.128500,1841
515.129000,1849
515.129500,1844
515.130000,1824
515.130500,1820
515.131000,1815
515.131500,1808
515.132000,1812
515.132500,1834
515.133000,1831
515.133500,1835
515.134000,1858
515.134500,1875
515.135000,1858
515.135500,1861
515.136000,1866
515.136500,1853
515.137000,1852
515.137500,1863
515.138000,1840
515.138500,1796
515.139000,1757
515.139500,1732
515.140000,1717
515.140500,1731
515.141000,1743
515.141500,1739
515.142000,1740
515.142500,1749
515.143000,1734
515.143500,1725
515.144000,1734
515.144500,1742
515.145000,1746
515.145500,1774
515.146000,1787
515.146500,1783
515.147000,1792
515.147500,1831
515.148000,1846
515.148500,1846
515.149000,1851
515.149500,1847
515.150000,1823
515.150500,1833
515.151000,1831
515.151500,1811
515.152000,1798
515.152500,1808
515.153000,1797
515.153500,1793
515.154000,1803
515.154500,1803
515.155000,1785
515.155500,1800
515.156000,1809
515.156500,1799
515.157000,1793
515.157500,1813
515.158000,1808
515.158500,1810
515.159000,1829
515.159500,1835
515.160000,1825
515.160500,1830
515.161000,1832
515.161500,1818
515.162000,1806
515.162500,1822
515.163000,1817
515.163500,1813
515.164000,1817
515.164500,1813
515.165000,1785
515.165500,1783
515.166000,1784
515.166500,1770
515.167000,1778
515.167500,1804
515.168000,1800
515.168500,1807
515.169000,1826
515.169500,1837
515.170000,1819
515.170500,1832
515.171000,1838
515.171500,1818
515.172000,1808
515.172500,1808
515.173000,1786
515.173500,1773
515.174000,1796
515.174500,1797
515.175000,1813
515.175500,1824
515.176000,1832
515.176500,1819
515.177000,1831
515.177500,1836
515.178000,1838
515.178500,1856
515.179000,1908
515.179500,1920
515.180000,1934
515.180500,1939
515.181000,1931
515.181500,1893
515.182000,1859
515.182500,1847
515.183000,1813
515.183500,1791
515.184000,1787
515.184500,1759
515.185000,1708
515.185500,1689
515.186000,1697
515.186500,1700
515.187000,1715
515.187500,1739
515.188000,1726
515.188500,1721
515.189000,1733
515.189500,1736
515.190000,1725
515.190500,1747
515.191000,1774
515.191500,1784
515.192000,1801
515.192500,1816
515.193000,1806
515.193500,1797
515.194000,1811
515.194500,1819
515.195000,1823
515.195500,1834
515.196000,1846
515.196500,1829
515.197000,1820
515.197500,1827
515.198000,1800
515.198500,1786
515.199000,1794
515.199500,1790
515.200000,1793
515.200500,1823
515.201000,1840
515.201500,1833
515.202000,1836
515.202500,1864
515.203000,1864
515.203500,1870
515.204000,1898
515.204500,1906
515.205000,1880
515.205500,1881
515.206000,1873
515.206500,1840
515.207000,1818
515.207500,1823
515.208000,1804
515.208500,1781
515.209000,1778
515.209500,1769
515.210000,1736
515.210500,1732
515.211000,1728
515.211500,1709
515.212000,1705
515.212500,1732
515.213000,1745
515.213500,1761
515.214000,1787
515.214500,1799
515.215000,1791
515.215500,1808
515.216000,1817
515.216500,1806
515.217000,1810
515.217500,1840
515.218000,1845
515.218500,1842
515.219000,1860
515.219500,1876
515.220000,1874
515.220500,1888
515.221000,1894
515.221500,1878
515.222000,1881
515.222500,1893
515.223000,1864
515.223500,1837
515.224000,1838
515.224500,1834
515.225000,1794
515.225500,1786
515.226000,1777
515.226500,1756
515.227000,1736
515.227500,1740
515.228000,1715
515.228500,1703
515.229000,1724
515.229500,1728
515.230000,1754
515.230500,1778
515.231000,1796
515.231500,1788
515.232000,1807
515.232500,1812
515.233000,1805
515.233500,1802
515.234000,1821
515.234500,1814
515.235000,1813
515.235500,1828
515.236000,1838
515.236500,1821
515.237000,1832
515.237500,1828
515.238000,1822
515.238500,1817
515.239000,1831
515.239500,1822
515.240000,1847
515.240500,1866
515.241000,1870
515.241500,1853
515.242000,1837
515.242500,1838
515.243000,1815
515.243500,1807
515.244000,1800
515.244500,1759
515.245000,1740
515.245500,1746
515.246000,1753
515.246500,1756
515.247000,1812
515.247500,1840
515.248000,1851
515.248500,1858
515.249000,1873
515.249500,1856
515.250000,1848
515.250500,1845
515.251000,1836
515.251500,1805
515.252000,1798
515.252500,1776
515.253000,1742
515.253500,1721
515.254000,1733
515.254500,1754
515.255000,1762
515.255500,1791
515.256000,1803
515.256500,1791
515.257000,1791
515.257500,1810
515.258000,1801
515.258500,1796
515.259000,1810
515.259500,1812
515.260000,1789
515.260500,1794
515.261000,1800
515.261500,1787
515.262000,1786
515.262500,1808
515.263000,1802
515.263500,1803
515.264000,1825
515.264500,1824
515.265000,1820
515.265500,1834
515.266000,1843
515.266500,1825
515.267000,1845
515.267500,1839
515.268000,1829
515.268500,1824
515.269000,1838
515.269500,1829
515.270000,1817
515.270500,1828
515.271000,1833
515.271500,1815
515.272000,1829
515.272500,1832
515.273000,1838
515.273500,1840
515.274000,1852
515.274500,1839
515.275000,1830
515.275500,1834
515.276000,1833
515.276500,1811
515.277000,1802
515.277500,1812
515.278000,1794
515.278500,1787
515.279000,1797
515.279500,1786
515.280000,1778
515.280500,1789
515.281000,1795
515.281500,1776
515.282000,1770
515.282500,1776
515.283000,1764
515.283500,1763
515.284000,1781
515.284500,1779
515.285000,1779
515.285500,1801
515.286000,1813
515.286500,1801
515.287000,1819
515.287500,1828
515.288000,1815
515.288500,1805
515.289000,1814
515.289500,1813
515.290000,1812
515.290500,1832
515.291000,1842
515.291500,1840
515.292000,1863
515.292500,1875
515.293000,1869
515.293500,1887
515.294000,1915
515.294500,1896
515.295000,1877
515.295500,1866
515.296000,1851
515.296500,1816
515.297000,1814
515.297500,1818
515.298000,1803
515.298500,1779
515.299000,1764
515.299500,1721
515.300000,1705
515.300500,1718
515.301000,1729
515.301500,1717
515.302000,1726
515.302500,1726
515.303000,1715
515.303500,1716
515.304000,1749
515.304500,1763
515.305000,1797
515.305500,1845
515.306000,1873
515.306500,1859
515.307000,1866
515.307500,1867
515.308000,1847
515.308500,1835
515.309000,1847
515.309500,1831
515.310000,1820
515.310500,1815
515.311000,1806
515.311500,1781
515.312000,1799
515.312500,1807
515.313000,1786
515.313500,1774
515.314000,1781
515.314500,1765
515.315000,1754
515.315500,1775
515.316000,1780
515.316500,1782
515.317000,1798
515.317500,1810
515.318000,1799
515.318500,1814
515.319000,1817
515.319500,1805
515.320000,1798
515.320500,1805
515.321000,1793
515.321500,1803
515.322000,1824
515.322500,1839
515.323000,1830
515.323500,1846
515.324000,1842
515.324500,1827
515.325000,1823
515.325500,1834
515.326000,1814
515.326500,1801
515.327000,1800
515.327500,1798
515.328000,1776
515.328500,1786
515.329000,1802
515.329500,1795
515.330000,1796
515.330500,1814
515.331000,1820
515.331500,1812
515.332000,1834
515.332500,1845
515.333000,1844
515.333500,1860
515.334000,1880
515.334500,1864
515.335000,1851
515.335500,1849
515.336000,1828
515.336500,1799
515.337000,1794
515.337500,1795
515.338000,1783
515.338500,1784
515.339000,1784
515.339500,1759
515.340000,1758
515.340500,1788
515.341000,1789
515.341500,1793
515.342000,1814
515.342500,1822
515.343000,1807
515.343500,1820
515.344000,1835
515.344500,1851
515.345000,1877
515.345500,1901
515.346000,1893
515.346500,1881
515.347000,1879
515.347500,1873
515.348000,1841
515.348500,1835
515.349000,1821
515.349500,1788
515.350000,1766
515.350500,1762
515.351000,1737
515.351500,1726
515.352000,1741
515.352500,1750
515.353000,1734
515.353500,1741
515.354000,1749
515.354500,1739
515.355000,1744
515.355500,1771
515.356000,1778
515.356500,1785
515.357000,1816
515.357500,1839
515.358000,1847
515.358500,1876
515.359000,1884
515.359500,1870
515.360000,1862
515.360500,1869
515.361000,1847
515.361500,1829
515.362000,1830
515.362500,1820
515.363000,1792
515.363500,1798
515.364000,1801
515.364500,1790
515.365000,1800
515.365500,1839
515.366000,1845
515.366500,1848
515.367000,1858
515.367500,1865
515.368000,1842
515.368500,1832
515.369000,1820
515.369500,1793
515.370000,1770
515.370500,1759
515.371000,1725
515.371500,1698
515.372000,1702
515.372500,1716
515.373000,1722
515.373500,1742
515.374000,1751
515.374500,1743
515.375000,1748
515.375500,1770
515.376000,1763
515.376500,1768
515.377000,1791
515.377500,1805
515.378000,1792
515.378500,1811
515.379000,1824
515.379500,1817
515.380000,1822
515.380500,1847
515.381000,1847
515.381500,1844
515.382000,1855
515.382500,1851
515.383000,1818
515.383500,1815
515.384000,1812
515.384500,1794
515.385000,1785
515.385500,1806
515.386000,1802
515.386500,1802
515.387000,1822
515.387500,1832
515.388000,1815
515.388500,1827
515.389000,1835
515.389500,1823
515.390000,1828
515.390500,1856
515.391000,1854
515.391500,1858
515.392000,1883
515.392500,1893
515.393000,1871
515.393500,1875
515.394000,1872
515.394500,1848
515.395000,1832
515.395500,1830
515.396000,1796
515.396500,1765
515.397000,1768
515.397500,1767
515.398000,1743
515.398500,1749
515.399000,1746
515.399500,1736
515.400000,1739
515.400500,1773
515.401000,1775
515.401500,1778
515.402000,1796
515.402500,1806
515.403000,1797
515.403500,1810
515.404000,1816
515.404500,1801
515.405000,1797
515.405500,1816
515.406000,1812
515.406500,1810
515.407000,1836
515.407500,1858
515.408000,1856
515.408500,1876
515.409000,1878
515.409500,1858
515.410000,1852
515.410500,1849
515.411000,1821
515.411500,1799
515.412000,1800
515.412500,1802
515.413000,1774
515.413500,1770
515.414000,1765
515.414500,1755
515.415000,1756
515.415500,1781
515.416000,1773
515.416500,1774
515.417000,1794
515.417500,1804
515.418000,1792
515.418500,1823
515.419000,1881
515.419500,1908
515.420000,1922
515.420500,1941
515.421000,1933
515.421500,1923
515.422000,1923
515.422500,1897
515.423000,1822
515.423500,1771
515.424000,1727
515.424500,1690
515.425000,1684
515.425500,1713
515.426000,1734
515.426500,1746
515.427000,1766
515.427500,1778
515.428000,1761
515.428500,1774
515.429000,1776
515.429500,1762
515.430000,1766
515.430500,1792
515.431000,1791
515.431500,1787
515.432000,1806
515.432500,1798
515.433000,1807
515.433500,1834
515.434000,1847
515.434500,1837
515.435000,1863
515.435500,1853
515.436000,1839
515.436500,1830
515.437000,1831
515.437500,1813
515.438000,1803
515.438500,1829
515.439000,1847
515.439500,1830
515.440000,1832
515.440500,1845
515.441000,1858
515.441500,1880
515.442000,1905
515.442500,1897
515.443000,1874
515.443500,1872
515.444000,1863
515.444500,1827
515.445000,1814
515.445500,1794
515.446000,1757
515.446500,1724
515.447000,1705
515.447500,1666
515.448000,1654
515.448500,1680
515.449000,1705
515.449500,1712
515.450000,1742
515.450500,1775
515.451000,1780
515.451500,1783
515.452000,1810
515.452500,1810
515.453000,1811
515.453500,1824
515.454000,1829
515.454500,1822
515.455000,1841
515.455500,1844
515.456000,1826
515.456500,1818
515.457000,1835
515.457500,1823
515.458000,1816
515.458500,1830
515.459000,1828
515.459500,1802
515.460000,1809
515.460500,1803
515.461000,1774
515.461500,1766
515.462000,1784
515.462500,1780
515.463000,1777
515.463500,1792
515.464000,1806
515.464500,1797
515.465000,1815
515.465500,1829
515.466000,1819
515.466500,1818
515.467000,1838
515.467500,1822
515.468000,1813
515.468500,1832
515.469000,1861
515.469500,1868
515.470000,1893
515.470500,1890
515.471000,1859
515.471500,1842
515.472000,1832
515.472500,1829
515.473000,1837
515.473500,1873
515.474000,1870
515.474500,1861
515.475000,1852
515.475500,1826
515.476000,1781
515.476500,1773
515.477000,1746
515.477500,1728
515.478000,1723
515.478500,1731
515.479000,1722
515.479500,1721
515.480000,1750
515.480500,1772
515.481000,1778
515.481500,1798
515.482000,1824
515.482500,1817
515.483000,1804
515.483500,1808
515.484000,1790
515.484500,1778
515.485000,1801
515.485500,1813
515.486000,1806
515.486500,1810
515.487000,1820
515.487500,1825
515.488000,1858
515.488500,1910
515.489000,1923
515.489500,1922
515.490000,1928
515.490500,1914
515.491000,1877
515.491500,1866
515.492000,1847
515.492500,1805
515.493000,1768
515.493500,1742
515.494000,1716
515.494500,1712
515.495000,1747
515.495500,1771
515.496000,1773
515.496500,1790
515.497000,1793
515.497500,1771
515.498000,1752
515.498500,1754
515.499000,1733
515.499500,1725
515.500000,1746
515.500500,1760
515.501000,1767
515.501500,1793
515.502000,1811
515.502500,1812
515.503000,1825
515.503500,1848
515.504000,1834
515.504500,1825
515.505000,1841
515.505500,1848
515.506000,1826
515.506500,1837
515.507000,1839
515.507500,1829
515.508000,1823
515.508500,1838
515.509000,1820
515.509500,1815
515.510000,1827
515.510500,1817
515.511000,1810
515.511500,1814
515.512000,1815
515.512500,1792
515.513000,1799
515.513500,1794
515.514000,1781
515.514500,1786
515.515000,1808
515.515500,1811
515.516000,1815
515.516500,1836
515.517000,1859
515.517500,1868
515.518000,1907
515.518500,1902
515.519000,1889
515.519500,1872
515.520000,1873
515.520500,1847
515.521000,1814
515.521500,1795
515.522000,1784
515.522500,1754
515.523000,1733
515.523500,1707
515.524000,1686
515.524500,1692
515.525000,1732
515.525500,1738
515.526000,1741
515.526500,1765
515.527000,1776
515.527500,1766
515.528000,1774
515.528500,1793
515.529000,1793
515.529500,1793
515.530000,1820
515.530500,1816
515.531000,1814
515.531500,1823
515.532000,1829
515.532500,1820
515.533000,1844
515.533500,1870
515.534000,1873
515.534500,1871
515.535000,1885
515.535500,1868
515.536000,1859
515.536500,1859
515.537000,1854
515.537500,1819
515.538000,1815
515.538500,1796
515.539000,1766
515.539500,1748
515.540000,1756
515.540500,1754
515.541000,1757
515.541500,1768
515.542000,1771
515.542500,1760
515.543000,1787
515.543500,1812
515.544000,1839
515.544500,1862
515.545000,1889
515.545500,1878
515.546000,1865
515.546500,1867
515.547000,1857
515.547500,1815
515.548000,1799
515.548500,1778
515.549000,1755
515.549500,1751
515.550000,1775
515.550500,1764
515.551000,1763
515.551500,1782
515.552000,1791
515.552500,1778
515.553000,1798
515.553500,1808
515.554000,1794
515.554500,1794
515.555000,1812
515.555500,1800
515.556000,1796
515.556500,1805
515.557000,1810
515.557500,1791
515.558000,1814
515.558500,1824
515.559000,1807
515.559500,1808
515.560000,1837
515.560500,1834
515.561000,1828
515.561500,1826
515.562000,1821
515.562500,1794
515.563000,1810
515.563500,1840
515.564000,1865
515.564500,1897
515.565000,1926
515.565500,1915
515.566000,1898
515.566500,1897
515.567000,1876
515.567500,1852
515.568000,1837
515.568500,1818
515.569000,1783
515.569500,1754
515.570000,1736
515.570500,1696
515.571000,1695
515.571500,1746
515.572000,1765
515.572500,1784
515.573000,1799
515.573500,1800
515.574000,1784
515.574500,1806
515.575000,1794
515.575500,1779
515.576000,1780
515.576500,1808
515.577000,1820
515.577500,1834
515.578000,1859
515.578500,1867
515.579000,1840
515.579500,1836
515.580000,1818
515.580500,1796
515.581000,1780
515.581500,1779
515.582000,1748
515.582500,1743
515.583000,1767
515.583500,1791
515.584000,1783
515.584500,1814
515.585000,1807
515.585500,1790
515.586000,1775
515.586500,1790
515.587000,1786
515.587500,1791
515.588000,1806
515.588500,1819
515.589000,1812
515.589500,1831
515.590000,1829
515.590500,1814
515.591000,1804
515.591500,1816
515.592000,1804
515.592500,1793
515.593000,1790
515.593500,1787
515.594000,1768
515.594500,1785
515.595000,1789
515.595500,1797
515.596000,1810
515.596500,1825
515.597000,1820
515.597500,1827
515.598000,1857
515.598500,1879
515.599000,1874
515.599500,1889
515.600000,1885
515.600500,1863
515.601000,1848
515.601500,1840
515.602000,1807
515.602500,1786
515.603000,1805
515.603500,1833
515.604000,1832
515.604500,1845
515.605000,1851
515.605500,1837
515.606000,1825
515.606500,1823
515.607000,1800
515.607500,1777
515.608000,1778
515.608500,1771
515.609000,1743
515.609500,1726
515.610000,1731
515.610500,1738
515.611000,1755
515.611500,1782
515.612000,1782
515.612500,1783
515.613000,1802
515.613500,1812
515.614000,1802
515.614500,1814
515.615000,1840
515.615500,1827
515.616000,1820
515.616500,1825
515.617000,1820
515.617500,1819
515.618000,1854
515.618500,1884
515.619000,1877
515.619500,1864
515.620000,1868
515.620500,1850
515.621000,1833
515.621500,1828
515.622000,1794
515.622500,1758
515.623000,1756
515.623500,1760
515.624000,1741
515.624500,1737
515.625000,1750
515.625500,1748
515.626000,1755
515.626500,1774
515.627000,1772
515.627500,1770
515.628000,1786
515.628500,1800
515.629000,1793
515.629500,1809
515.630000,1824
515.630500,1817
515.631000,1814
515.631500,1828
515.632000,1820
515.632500,1812
515.633000,1818
515.633500,1820
515.634000,1797
515.634500,1810
515.635000,1826
515.635500,1810
515.636000,1807
515.636500,1818
515.637000,1810
515.637500,1804
515.638000,1822
515.638500,1836
515.639000,1819
515.639500,1830
515.640000,1832
515.640500,1820
515.641000,1811
515.641500,1827
515.642000,1854
515.642500,1875
515.643000,1890
515.643500,1893
515.644000,1872
515.644500,1865
515.645000,1847
515.645500,1808
515.646000,1760
515.646500,1743
515.647000,1736
515.647500,1747
515.648000,1767
515.648500,1772
515.649000,1755
515.649500,1773
515.650000,1785
515.650500,1780
515.651000,1775
515.651500,1797
515.652000,1814
515.652500,1833
515.653000,1861
515.653500,1874
515.654000,1855
515.654500,1863
515.655000,1868
515.655500,1847
515.656000,1833
515.656500,1846
515.657000,1850
515.657500,1843
515.658000,1833
515.658500,1814
515.659000,1782
515.659500,1777
515.660000,1784
515.660500,1773
515.661000,1773
515.661500,1778
515.662000,1768
515.662500,1758
515.663000,1762
515.663500,1755
515.664000,1729
515.664500,1735
515.665000,1769
515.665500,1769
515.666000,1770
515.666500,1786
515.667000,1786
515.667500,1785
515.668000,1803
515.668500,1811
515.669000,1802
515.669500,1825
515.670000,1821
515.670500,1814
515.671000,1812
515.671500,1827
515.672000,1820
515.672500,1815
515.673000,1824
515.673500,1828
515.674000,1811
515.674500,1829
515.675000,1828
515.675500,1816
515.676000,1811
515.676500,1826
515.677000,1814
515.677500,1814
515.678000,1833
515.678500,1851
515.679000,1852
515.679500,1874
515.680000,1875
515.680500,1862
515.681000,1847
515.681500,1854
515.682000,1829
515.682500,1825
515.683000,1829
515.683500,1829
515.684000,1818
515.684500,1827
515.685000,1828
515.685500,1826
515.686000,1815
515.686500,1822
515.687000,1806
515.687500,1788
515.688000,1762
515.688500,1736
515.689000,1709
515.689500,1723
515.690000,1750
515.690500,1776
515.691000,1786
515.691500,1804
515.692000,1791
515.692500,1794
515.693000,1804
515.693500,1803
515.694000,1783
515.694500,1774
515.695000,1796
515.695500,1786
515.696000,1782
515.696500,1812
515.697000,1832
515.697500,1820
515.698000,1835
515.698500,1842
515.699000,1854
515.699500,1866
515.700000,1883
515.700500,1860
515.701000,1835
515.701500,1842
515.702000,1852
515.702500,1826
515.703000,1820
515.703500,1802
515.704000,1784
515.704500,1788
515.705000,1820
515.705500,1811
515.706000,1783
515.706500,1788
515.707000,1808
515.707500,1805
515.708000,1808
515.708500,1810
515.709000,1799
515.709500,1805
515.710000,1825
515.710500,1800
515.711000,1762
515.711500,1758
515.712000,1773
515.712500,1772
515.713000,1791
515.713500,1795
515.714000,1774
515.714500,1763
515.715000,1772
515.715500,1759
515.716000,1757
515.716500,1775
515.717000,1788
515.717500,1784
515.718000,1795
515.718500,1808
515.719000,1799
515.719500,1798
515.720000,1820
515.720500,1817
515.721000,1810
515.721500,1817
515.722000,1816
515.722500,1800
515.723000,1803
515.723500,1821
515.724000,1813
515.724500,1811
515.725000,1835
515.725500,1826
515.726000,1825
515.726500,1834
515.727000,1836
515.727500,1818
515.728000,1818
515.728500,1821
515.729000,1813
515.729500,1806
515.730000,1823
515.730500,1820
515.731000,1812
515.731500,1819
515.732000,1829
515.732500,1811
515.733000,1814
515.733500,1810
515.734000,1793
515.734500,1794
515.735000,1818
515.735500,1815
515.736000,1815
515.736500,1829
515.737000,1836
515.737500,1816
515.738000,1817
515.738500,1813
515.739000,1790
515.739500,1778
515.740000,1794
515.740500,1788
515.741000,1782
515.741500,1798
515.742000,1809
515.742500,1794
515.743000,1811
515.743500,1823
515.744000,1820
515.744500,1820
515.745000,1846
515.745500,1846
515.746000,1844
515.746500,1856
515.747000,1861
515.747500,1841
515.748000,1848
515.748500,1850
515.749000,1830
515.749500,1817
515.750000,1830
515.750500,1817
515.751000,1803
515.751500,1803
515.752000,1796
515.752500,1763
515.753000,1768
515.753500,1780
515.754000,1780
515.754500,1784
515.755000,1800
515.755500,1793
515.756000,1786
515.756500,1801
515.757000,1807
515.757500,1803
515.758000,1831
515.758500,1852
515.759000,1843
515.759500,1836
515.760000,1849
515.760500,1834
515.761000,1829
515.761500,1836
515.762000,1838
515.762500,1816
515.763000,1818
515.763500,1830
515.764000,1801
515.764500,1783
515.765000,1790
515.765500,1778
515.766000,1768
515.766500,1780
515.767000,1783
515.767500,1758
515.768000,1757
515.768500,1755
515.769000,1753
515.769500,1760
515.770000,1792
515.770500,1786
515.771000,1790
515.771500,1817
515.772000,1840
515.772500,1850
515.773000,1907
515.773500,1937
515.774000,1926
515.774500,1896
515.775000,1863
515.775500,1803
515.776000,1778
515.776500,1803
515.777000,1822
515.777500,1802
515.778000,1801
515.778500,1789
515.779000,1778
515.779500,1760
515.780000,1760
515.780500,1754
515.781000,1753
515.781500,1769
515.782000,1784
515.782500,1766
515.783000,1765
515.783500,1756
515.784000,1736
515.784500,1733
515.785000,1765
515.785500,1765
515.786000,1771
515.786500,1796
515.787000,1813
515.787500,1802
515.788000,1808
515.788500,1832
515.789000,1822
515.789500,1823
515.790000,1847
515.790500,1844
515.791000,1834
515.791500,1843
515.792000,1840
515.792500,1817
515.793000,1820
515.793500,1824
515.794000,1816
515.794500,1812
515.795000,1833
515.795500,1822
515.796000,1803
515.796500,1801
515.797000,1804
515.797500,1794
515.798000,1800
515.798500,1820
515.799000,1810
515.799500,1809
515.800000,1823
515.800500,1825
515.801000,1814
515.801500,1818
515.802000,1820
515.802500,1793
515.803000,1807
515.803500,1798
515.804000,1791
515.804500,1794
515.805000,1810
515.805500,1807
515.806000,1801
515.806500,1804
515.807000,1805
515.807500,1791
515.808000,1806
515.808500,1814
515.809000,1816
515.809500,1820
515.810000,1845
515.810500,1850
515.811000,1867
515.811500,1888
515.812000,1897
515.812500,1879
515.813000,1888
515.813500,1869
515.814000,1845
515.814500,1825
515.815000,1828
515.815500,1808
515.816000,1790
515.816500,1776
515.817000,1755
515.817500,1731
515.818000,1738
515.818500,1750
515.819000,1747
515.819500,1742
515.820000,1761
515.820500,1758
515.821000,1749
515.821500,1774
515.822000,1804
515.822500,1801
515.823000,1821
515.823500,1820
515.824000,1808
515.824500,1810
515.825000,1824
515.825500,1809
515.826000,1797
515.826500,1803
515.827000,1808
515.827500,1795
515.828000,1816
515.828500,1827
515.829000,1825
515.829500,1820
515.830000,1836
515.830500,1810
515.831000,1821
515.831500,1837
515.832000,1846
515.832500,1822
515.833000,1827
515.833500,1811
515.834000,1790
515.834500,1787
515.835000,1816
515.835500,1817
515.836000,1830
515.836500,1851
515.837000,1859
515.837500,1850
515.838000,1873
515.838500,1859
515.839000,1850
515.839500,1845
515.840000,1863
515.840500,1853
515.841000,1850
515.841500,1869
515.842000,1886
515.842500,1870
515.843000,1864
515.843500,1837
515.844000,1804
515.844500,1776
515.845000,1769
515.845500,1736
515.846000,1727
515.846500,1746
515.847000,1772
515.847500,1759
515.848000,1770
515.848500,1747
515.849000,1744
515.849500,1749
515.850000,1777
515.850500,1764
515.851000,1741
515.851500,1734
515.852000,1747
515.852500,1756
515.853000,1770
515.853500,1814
515.854000,1828
515.854500,1842
515.855000,1864
515.855500,1870
515.856000,1878
515.856500,1883
515.857000,1873
515.857500,1841
515.858000,1832
515.858500,1835
515.859000,1816
515.859500,1811
515.860000,1822
515.860500,1809
515.861000,1792
515.861500,1785
515.862000,1786
515.862500,1767
515.863000,1769
515.863500,1773
515.864000,1765
515.864500,1772
515.865000,1792
515.865500,1771
515.866000,1756
515.866500,1764
515.867000,1773
515.867500,1762
515.868000,1777
515.868500,1790
515.869000,1782
515.869500,1783
515.870000,1804
515.870500,1802
515.871000,1800
515.871500,1810
515.872000,1814
515.872500,1799
515.873000,1813
515.873500,1822
515.874000,1814
515.874500,1810
515.875000,1826
515.875500,1818
515.876000,1819
515.876500,1844
515.877000,1868
515.877500,1867
515.878000,1883
515.878500,1886
515.879000,1865
515.879500,1855
515.880000,1860
515.880500,1840
515.881000,1826
515.881500,1829
515.882000,1822
515.882500,1790
515.883000,1787
515.883500,1780
515.884000,1768
515.884500,1770
515.885000,1799
515.885500,1790
515.886000,1782
515.886500,1784
515.887000,1777
515.887500,1753
515.888000,1775
515.888500,1789
515.889000,1785
515.889500,1786
515.890000,1805
515.890500,1799
515.891000,1800
515.891500,1808
515.892000,1811
515.892500,1798
515.893000,1815
515.893500,1829
515.894000,1812
515.894500,1804
515.895000,1821
515.895500,1809
515.896000,1807
515.896500,1820
515.897000,1818
515.897500,1808
515.898000,1815
515.898500,1820
515.899000,1807
515.899500,1801
515.900000,1816
515.900500,1804
515.901000,1799
515.901500,1822
515.902000,1822
515.902500,1821
515.903000,1824
515.903500,1818
515.904000,1794
515.904500,1802
515.905000,1802
515.905500,1784
515.906000,1779
515.906500,1805
515.907000,1806
515.907500,1816
515.908000,1832
515.908500,1836
515.909000,1823
515.909500,1837
515.910000,1856
515.910500,1849
515.911000,1843
515.911500,1849
515.912000,1833
515.912500,1825
515.913000,1832
515.913500,1836
515.914000,1812
515.914500,1819
515.915000,1812
515.915500,1793
515.916000,1787
515.916500,1796
515.917000,1795
515.917500,1794
515.918000,1819
515.918500,1852
515.919000,1862
515.919500,1876
515.920000,1878
515.920500,1860
515.921000,1837
515.921500,1827
515.922000,1806
515.922500,1800
515.923000,1823
515.923500,1823
515.924000,1797
515.924500,1797
515.925000,1805
515.925500,1798
515.926000,1785
515.926500,1796
515.927000,1786
515.927500,1767
515.928000,1767
515.928500,1762
515.929000,1738
515.929500,1752
515.930000,1779
515.930500,1796
515.931000,1802
515.931500,1821
515.932000,1816
515.932500,1807
515.933000,1813
515.933500,1813
515.934000,1787
515.934500,1785
515.935000,1781
515.935500,1754
515.936000,1758
515.936500,1768
515.937000,1754
515.937500,1748
515.938000,1759
515.938500,1761
515.939000,1768
515.939500,1789
515.940000,1796
515.940500,1785
515.941000,1811
515.941500,1816
515.942000,1818
515.942500,1818
515.943000,1827
515.943500,1814
515.944000,1802
515.944500,1809
515.945000,1820
515.945500,1810
515.946000,1812
515.946500,1823
515.947000,1824
515.947500,1824
515.948000,1834
515.948500,1822
515.949000,1817
515.949500,1835
515.950000,1852
515.950500,1843
515.951000,1847
515.951500,1841
515.952000,1837
515.952500,1829
515.953000,1838
515.953500,1822
515.954000,1811
515.954500,1817
515.955000,1826
515.955500,1807
515.956000,1811
515.956500,1814
515.957000,1799
515.957500,1788
515.958000,1797
515.958500,1774
515.959000,1766
515.959500,1786
515.960000,1798
515.960500,1787
515.961000,1801
515.961500,1807
515.962000,1792
515.962500,1788
515.963000,1810
515.963500,1813
515.964000,1825
515.964500,1853
515.965000,1866
515.965500,1845
515.966000,1855
515.966500,1865
515.967000,1868
515.967500,1866
515.968000,1885
515.968500,1868
515.969000,1852
515.969500,1845
515.970000,1816
515.970500,1817
515.971000,1813
515.971500,1786
515.972000,1743
515.972500,1748
515.973000,1751
515.973500,1748
515.974000,1747
515.974500,1748
515.975000,1732
515.975500,1724
515.976000,1762
515.976500,1781
515.977000,1777
515.977500,1790
515.978000,1802
515.978500,1794
515.979000,1790
515.979500,1809
515.980000,1800
515.980500,1797
515.981000,1814
515.981500,1831
515.982000,1831
515.982500,1842
515.983000,1847
515.983500,1833
515.984000,1826
515.984500,1838
515.985000,1835
515.985500,1842
515.986000,1857
515.986500,1848
515.987000,1820
515.987500,1823
515.988000,1816
515.988500,1799
515.989000,1793
515.989500,1809
515.990000,1793
515.990500,1788
515.991000,1802
515.991500,1809
515.992000,1789
515.992500,1797
515.993000,1798
515.993500,1784
515.994000,1779
515.994500,1797
515.995000,1797
515.995500,1795
515.996000,1811
515.996500,1826
515.997000,1843
515.997500,1884
515.998000,1910
515.998500,1898
515.999000,1883
515.999500,1882
516.000000,1855
516.000500,1820
516.001000,1804
516.001500,1784
516.002000,1753
516.002500,1756
516.003000,1759
516.003500,1742
516.004000,1748
516.004500,1789
516.005000,1814
516.005500,1811
516.006000,1821
516.006500,1813
516.007000,1801
516.007500,1803
516.008000,1802
516.008500,1786
516.009000,1775
516.009500,1791
516.010000,1778
516.010500,1756
516.011000,1761
516.011500,1751
516.012000,1759
516.012500,1778
516.013000,1793
516.013500,1788
516.014000,1800
516.014500,1820
516.015000,1812
516.015500,1814
516.016000,1827
516.016500,1808
516.017000,1805
516.017500,1827
516.018000,1848
516.018500,1842
516.019000,1855
516.019500,1850
516.020000,1836
516.020500,1821
516.021000,1830
516.021500,1803
516.022000,1785
516.022500,1791
516.023000,1796
516.023500,1773
516.024000,1793
516.024500,1782
516.025000,1779
516.025500,1778
516.026000,1796
516.026500,1792
516.027000,1785
516.027500,1796
516.028000,1806
516.028500,1796
516.029000,1801
516.029500,1817
516.030000,1812
516.030500,1808
516.031000,1826
516.031500,1823
516.032000,1818
516.032500,1834
516.033000,1838
516.033500,1820
516.034000,1815
516.034500,1825
516.035000,1810
516.035500,1806
516.036000,1818
516.036500,1803
516.037000,1794
516.037500,1808
516.038000,1812
516.038500,1800
516.039000,1796
516.039500,1809
516.040000,1799
516.040500,1793
516.041000,1811
516.041500,1809
516.042000,1813
516.042500,1828
516.043000,1836
516.043500,1830
516.044000,1845
516.044500,1872
516.045000,1875
516.045500,1866
516.046000,1881
516.046500,1878
516.047000,1879
516.047500,1878
516.048000,1848
516.048500,1776
516.049000,1736
516.049500,1717
516.050000,1717
516.050500,1727
516.051000,1758
516.051500,1764
516.052000,1773
516.052500,1792
516.053000,1808
516.053500,1797
516.054000,1813
516.054500,1837
516.055000,1829
516.055500,1809
516.056000,1806
516.056500,1784
516.057000,1770
516.057500,1788
516.058000,1801
516.058500,1798
516.059000,1829
516.059500,1853
516.060000,1848
516.060500,1829
516.061000,1831
516.061500,1817
516.062000,1804
516.062500,1813
516.063000,1816
516.063500,1811
516.064000,1817
516.064500,1840
516.065000,1841
516.065500,1832
516.066000,1842
516.066500,1822
516.067000,1795
516.067500,1794
516.068000,1800
516.068500,1790
516.069000,1797
516.069500,1792
516.070000,1782
516.070500,1781
516.071000,1799
516.071500,1791
516.072000,1778
516.072500,1788
516.073000,1795
516.073500,1792
516.074000,1819
516.074500,1819
516.075000,1823
516.075500,1819
516.076000,1833
516.076500,1818
516.077000,1804
516.077500,1806
516.078000,1805
516.078500,1790
516.079000,1796
516.079500,1787
516.080000,1778
516.080500,1785
516.081000,1806
516.081500,1804
516.082000,1816
516.082500,1839
516.083000,1849
516.083500,1838
516.084000,1850
516.084500,1844
516.085000,1831
516.085500,1820
516.086000,1828
516.086500,1802
516.087000,1767
516.087500,1765
516.088000,1783
516.088500,1780
516.089000,1784
516.089500,1813
516.090000,1815
516.090500,1800
516.091000,1810
516.091500,1797
516.092000,1794
516.092500,1810
516.093000,1818
516.093500,1798
516.094000,1807
516.094500,1790
516.095000,1780
516.095500,1779
516.096000,1800
516.096500,1791
516.097000,1800
516.097500,1821
516.098000,1829
516.098500,1805
516.099000,1802
516.099500,1834
516.100000,1831
516.100500,1816
516.101000,1831
516.101500,1827
516.102000,1820
516.102500,1827
516.103000,1827
516.103500,1783
516.104000,1751
516.104500,1727
516.105000,1723
516.105500,1743
516.106000,1788
516.106500,1809
516.107000,1823
516.107500,1836
516.108000,1837
516.108500,1813
516.109000,1817
516.109500,1829
516.110000,1829
516.110500,1832
516.111000,1845
516.111500,1831
516.112000,1817
516.112500,1826
516.113000,1830
516.113500,1812
516.114000,1815
516.114500,1811
516.115000,1791
516.115500,1788
516.116000,1814
516.116500,1816
516.117000,1822
516.117500,1844
516.118000,1857
516.118500,1837
516.119000,1838
516.119500,1832
516.120000,1812
516.120500,1796
516.121000,1808
516.121500,1791
516.122000,1779
516.122500,1784
516.123000,1791
516.123500,1790
516.124000,1799
516.124500,1804
516.125000,1796
516.125500,1797
516.126000,1803
516.126500,1785
516.127000,1777
516.127500,1790
516.128000,1781
516.128500,1781
516.129000,1800
516.129500,1822
516.130000,1826
516.130500,1836
516.131000,1844
516.131500,1848
516.132000,1860
516.132500,1884
516.133000,1872
516.133500,1858
516.134000,1860
516.134500,1850
516.135000,1824
516.135500,1832
516.136000,1811
516.136500,1787
516.137000,1768
516.137500,1762
516.138000,1746
516.138500,1737
516.139000,1754
516.139500,1769
516.140000,1772
516.140500,1781
516.141000,1796
516.141500,1784
516.142000,1778
516.142500,1790
516.143000,1791
516.143500,1789
516.144000,1802
516.144500,1806
516.145000,1794
516.145500,1794
516.146000,1802
516.146500,1799
516.147000,1811
516.147500,1840
516.148000,1849
516.148500,1847
516.149000,1862
516.149500,1866
516.150000,1858
516.150500,1861
516.151000,1867
516.151500,1845
516.152000,1830
516.152500,1825
516.153000,1805
516.153500,1788
516.154000,1786
516.154500,1794
516.155000,1787
516.155500,1781
516.156000,1785
516.156500,1756
516.157000,1737
516.157500,1761
516.158000,1773
516.158500,1776
516.159000,1790
516.159500,1794
516.160000,1782
516.160500,1791
516.161000,1829
516.161500,1845
516.162000,1859
516.162500,1874
516.163000,1862
516.163500,1841
516.164000,1839
516.164500,1832
516.165000,1795
516.165500,1751
516.166000,1737
516.166500,1740
516.167000,1779
516.167500,1849
516.168000,1873
516.168500,1874
516.169000,1888
516.169500,1888
516.170000,1864
516.170500,1845
516.171000,1838
516.171500,1811
516.172000,1791
516.172500,1791
516.173000,1765
516.173500,1731
516.174000,1723
516.174500,1728
516.175000,1732
516.175500,1748
516.176000,1772
516.176500,1763
516.177000,1760
516.177500,1773
516.178000,1767
516.178500,1772
516.179000,1804
516.179500,1823
516.180000,1809
516.180500,1834
516.181000,1842
516.181500,1829
516.182000,1818
516.182500,1825
516.183000,1800
516.183500,1789
516.184000,1803
516.184500,1820
516.185000,1813
516.185500,1833
516.186000,1838
516.186500,1825
516.187000,1819
516.187500,1831
516.188000,1818
516.188500,1806
516.189000,1817
516.189500,1817
516.190000,1798
516.190500,1808
516.191000,1810
516.191500,1802
516.192000,1798
516.192500,1818
516.193000,1820
516.193500,1817
516.194000,1830
516.194500,1832
516.195000,1816
516.195500,1818
516.196000,1818
516.196500,1793
516.197000,1786
516.197500,1803
516.198000,1797
516.198500,1798
516.199000,1814
516.199500,1813
516.200000,1799
516.200500,1800
516.201000,1805
516.201500,1792
516.202000,1792
516.202500,1813
516.203000,1810
516.203500,1811
516.204000,1839
516.204500,1859
516.205000,1853
516.205500,1864
516.206000,1864
516.206500,1838
516.207000,1827
516.207500,1838
516.208000,1818
516.208500,1805
516.209000,1812
516.209500,1821
516.210000,1806
516.210500,1816
516.211000,1810
516.211500,1787
516.212000,1786
516.212500,1809
516.213000,1790
516.213500,1771
516.214000,1777
516.214500,1764
516.215000,1768
516.215500,1780
516.216000,1794
516.216500,1790
516.217000,1819
516.217500,1811
516.218000,1802
516.218500,1797
516.219000,1816
516.219500,1813
516.220000,1812
516.220500,1846
516.221000,1858
516.221500,1836
516.222000,1823
516.222500,1823
516.223000,1801
516.223500,1781
516.224000,1774
516.224500,1744
516.225000,1725
516.225500,1745
516.226000,1765
516.226500,1766
516.227000,1790
516.227500,1813
516.228000,1809
516.228500,1803
516.229000,1823
516.229500,1821
516.230000,1823
516.230500,1833
516.231000,1839
516.231500,1818
516.232000,1827
516.232500,1827
516.233000,1824
516.233500,1824
516.234000,1841
516.234500,1834
516.235000,1826
516.235500,1840
516.236000,1853
516.236500,1848
516.237000,1867
516.237500,1879
516.238000,1864
516.238500,1847
516.239000,1846
516.239500,1823
516.240000,1814
516.240500,1824
516.241000,1821
516.241500,1789
516.242000,1781
516.242500,1766
516.243000,1746
516.243500,1757
516.244000,1783
516.244500,1775
516.245000,1773
516.245500,1798
516.246000,1819
516.246500,1814
516.247000,1833
516.247500,1824
516.248000,1794
516.248500,1783
516.249000,1809
516.249500,1805
516.250000,1810
516.250500,1822
516.251000,1801
516.251500,1787
516.252000,1793
516.252500,1792
516.253000,1772
516.253500,1782
516.254000,1775
516.254500,1762
516.255000,1754
516.255500,1778
516.256000,1784
516.256500,1785
516.257000,1802
516.257500,1809
516.258000,1793
516.258500,1800
516.259000,1797
516.259500,1778
516.260000,1780
516.260500,1794
516.261000,1782
516.261500,1788
516.262000,1806
516.262500,1816
516.263000,1803
516.263500,1816
516.264000,1816
516.264500,1812
516.265000,1816
516.265500,1834
516.266000,1822
516.266500,1810
516.267000,1815
516.267500,1818
516.268000,1807
516.268500,1816
516.269000,1831
516.269500,1817
516.270000,1816
516.270500,1847
516.271000,1856
516.271500,1852
516.272000,1868
516.272500,1870
516.273000,1849
516.273500,1846
516.274000,1836
516.274500,1803
516.275000,1789
516.275500,1790
516.276000,1785
516.276500,1785
516.277000,1806
516.277500,1824
516.278000,1815
516.278500,1825
516.279000,1820
516.279500,1806
516.280000,1807
516.280500,1816
516.281000,1807
516.281500,1800
516.282000,1824
516.282500,1834
516.283000,1818
516.283500,1826
516.284000,1820
516.284500,1802
516.285000,1791
516.285500,1790
516.286000,1770
516.286500,1755
516.287000,1776
516.287500,1798
516.288000,1797
516.288500,1813
516.289000,1818
516.289500,1807
516.290000,1801
516.290500,1807
516.291000,1799
516.291500,1806
516.292000,1839
516.292500,1854
516.293000,1836
516.293500,1837
516.294000,1840
516.294500,1830
516.295000,1839
516.295500,1854
516.296000,1847
516.296500,1841
516.297000,1861
516.297500,1869
516.298000,1841
516.298500,1825
516.299000,1811
516.299500,1777
516.300000,1770
516.300500,1781
516.301000,1768
516.301500,1759
516.302000,1758
516.302500,1752
516.303000,1738
516.303500,1762
516.304000,1777
516.304500,1777
516.305000,1776
516.305500,1785
516.306000,1771
516.306500,1771
516.307000,1799
516.307500,1814
516.308000,1798
516.308500,1819
516.309000,1832
516.309500,1822
516.310000,1820
516.310500,1817
516.311000,1799
516.311500,1791
516.312000,1801
516.312500,1800
516.313000,1782
516.313500,1802
516.314000,1813
516.314500,1809
516.315000,1812
516.315500,1832
516.316000,1827
516.316500,1817
516.317000,1825
516.317500,1822
516.318000,1797
516.318500,1802
516.319000,1802
516.319500,1787
516.320000,1780
516.320500,1796
516.321000,1790
516.321500,1790
516.322000,1811
516.322500,1824
516.323000,1808
516.323500,1822
516.324000,1830
516.324500,1812
516.325000,1822
516.325500,1861
516.326000,1860
516.326500,1856
516.327000,1869
516.327500,1871
516.328000,1848
516.328500,1854
516.329000,1842
516.329500,1799
516.330000,1763
516.330500,1751
516.331000,1732
516.331500,1736
516.332000,1758
516.332500,1771
516.333000,1760
516.333500,1774
516.334000,1783
516.334500,1780
516.335000,1795
516.335500,1831
516.336000,1827
516.336500,1825
516.337000,1845
516.337500,1830
516.338000,1815
516.338500,1817
516.339000,1817
516.339500,1799
516.340000,1819
516.340500,1823
516.341000,1811
516.341500,1795
516.342000,1804
516.342500,1803
516.343000,1809
516.343500,1821
516.344000,1824
516.344500,1810
516.345000,1828
516.345500,1824
516.346000,1813
516.346500,1805
516.347000,1820
516.347500,1810
516.348000,1806
516.348500,1817
516.349000,1825
516.349500,1815
516.350000,1838
516.350500,1829
516.351000,1815
516.351500,1804
516.352000,1813
516.352500,1799
516.353000,1785
516.353500,1793
516.354000,1793
516.354500,1779
516.355000,1810
516.355500,1803
516.356000,1808
516.356500,1814
516.357000,1837
516.357500,1835
516.358000,1832
516.358500,1842
516.359000,1844
516.359500,1824
516.360000,1839
516.360500,1833
516.361000,1818
