# Subject: 
# Trial: 
# Notes: 
# Muscles: Ch1
# fs=2000 Hz, nch=1, vref=3.3 V
t_s,ch1_code
156.285000,1815
156.285500,1806
156.286000,1775
156.286500,1748
156.287000,1757
156.287500,1739
156.288000,1724
156.288500,1725
156.289000,1729
156.289500,1713
156.290000,1714
156.290500,1738
156.291000,1748
156.291500,1770
156.292000,1792
156.292500,1804
156.293000,1800
156.293500,1811
156.294000,1836
156.294500,1845
156.295000,1830
156.295500,1838
156.296000,1854
156.296500,1830
156.297000,1805
156.297500,1798
156.298000,1788
156.298500,1765
156.299000,1757
156.299500,1781
156.300000,1791
156.300500,1814
156.301000,1847
156.301500,1868
156.302000,1856
156.302500,1829
156.303000,1840
156.303500,1810
156.304000,1776
156.304500,1743
156.305000,1729
156.305500,1713
156.306000,1720
156.306500,1751
156.307000,1750
156.307500,1722
156.308000,1742
156.308500,1756
156.309000,1761
156.309500,1784
156.310000,1842
156.310500,1874
156.311000,1867
156.311500,1864
156.312000,1883
156.312500,1863
156.313000,1840
156.313500,1821
156.314000,1814
156.314500,1783
156.315000,1756
156.315500,1750
156.316000,1752
156.316500,1734
156.317000,1753
156.317500,1748
156.318000,1738
156.318500,1713
156.319000,1721
156.319500,1746
156.320000,1752
156.320500,1761
156.321000,1798
156.321500,1806
156.322000,1841
156.322500,1885
156.323000,1893
156.323500,1881
156.324000,1873
156.324500,1858
156.325000,1822
156.325500,1787
156.326000,1774
156.326500,1767
156.327000,1758
156.327500,1757
156.328000,1772
156.328500,1784
156.329000,1789
156.329500,1812
156.330000,1853
156.330500,1852
156.331000,1856
156.331500,1879
156.332000,1895
156.332500,1890
156.333000,1882
156.333500,1879
156.334000,1857
156.334500,1791
156.335000,1757
156.335500,1745
156.336000,1745
156.336500,1750
156.337000,1778
156.337500,1782
156.338000,1766
156.338500,1772
156.339000,1775
156.339500,1791
156.340000,1831
156.340500,1877
156.341000,1872
156.341500,1822
156.342000,1783
156.342500,1765
156.343000,1732
156.343500,1715
156.344000,1734
156.344500,1750
156.345000,1754
156.345500,1763
156.346000,1775
156.346500,1764
156.347000,1736
156.347500,1750
156.348000,1784
156.348500,1790
156.349000,1800
156.349500,1827
156.350000,1841
156.350500,1841
156.351000,1855
156.351500,1878
156.352000,1880
156.352500,1882
156.353000,1899
156.353500,1914
156.354000,1892
156.354500,1857
156.355000,1852
156.355500,1845
156.356000,1806
156.356500,1783
156.357000,1772
156.357500,1757
156.358000,1752
156.358500,1783
156.359000,1822
156.359500,1837
156.360000,1864
156.360500,1874
156.361000,1852
156.361500,1825
156.362000,1842
156.362500,1852
156.363000,1823
156.363500,1801
156.364000,1808
156.364500,1781
156.365000,1784
156.365500,1793
156.366000,1780
156.366500,1758
156.367000,1765
156.367500,1781
156.368000,1795
156.368500,1791
156.369000,1799
156.369500,1809
156.370000,1791
156.370500,1782
156.371000,1781
156.371500,1754
156.372000,1729
156.372500,1727
156.373000,1737
156.373500,1735
156.374000,1722
156.374500,1727
156.375000,1768
156.375500,1794
156.376000,1811
156.376500,1847
156.377000,1881
156.377500,1875
156.378000,1887
156.378500,1886
156.379000,1874
156.379500,1870
156.380000,1879
156.380500,1864
156.381000,1824
156.381500,1834
156.382000,1799
156.382500,1757
156.383000,1737
156.383500,1753
156.384000,1758
156.384500,1751
156.385000,1752
156.385500,1774
156.386000,1773
156.386500,1766
156.387000,1783
156.387500,1808
156.388000,1803
156.388500,1768
156.389000,1755
156.389500,1754
156.390000,1745
156.390500,1775
156.391000,1782
156.391500,1770
156.392000,1774
156.392500,1780
156.393000,1763
156.393500,1761
156.394000,1791
156.394500,1832
156.395000,1822
156.395500,1794
156.396000,1800
156.396500,1831
156.397000,1835
156.397500,1835
156.398000,1845
156.398500,1841
156.399000,1850
156.399500,1857
156.400000,1846
156.400500,1812
156.401000,1786
156.401500,1788
156.402000,1810
156.402500,1817
156.403000,1827
156.403500,1829
156.404000,1822
156.404500,1825
156.405000,1837
156.405500,1833
156.406000,1798
156.406500,1775
156.407000,1790
156.407500,1775
156.408000,1741
156.408500,1715
156.409000,1728
156.409500,1746
156.410000,1770
156.410500,1800
156.411000,1805
156.411500,1780
156.412000,1792
156.412500,1808
156.413000,1821
156.413500,1843
156.414000,1855
156.414500,1850
156.415000,1823
156.415500,1809
156.416000,1860
156.416500,1884
156.417000,1892
156.417500,1907
156.418000,1898
156.418500,1821
156.419000,1741
156.419500,1712
156.420000,1678
156.420500,1662
156.421000,1674
156.421500,1698
156.422000,1713
156.422500,1745
156.423000,1814
156.423500,1851
156.424000,1828
156.424500,1814
156.425000,1793
156.425500,1729
156.426000,1675
156.426500,1656
156.427000,1631
156.427500,1598
156.428000,1558
156.428500,1561
156.429000,1600
156.429500,1669
156.430000,1770
156.430500,1849
156.431000,1882
156.431500,1860
156.432000,1845
156.432500,1844
156.433000,1878
156.433500,1911
156.434000,1911
156.434500,1899
156.435000,1896
156.435500,1935
156.436000,1969
156.436500,1975
156.437000,1950
156.437500,1883
156.438000,1827
156.438500,1787
156.439000,1781
156.439500,1786
156.440000,1765
156.440500,1761
156.441000,1767
156.441500,1774
156.442000,1791
156.442500,1824
156.443000,1846
156.443500,1839
156.444000,1827
156.444500,1833
156.445000,1829
156.445500,1766
156.446000,1736
156.446500,1716
156.447000,1715
156.447500,1716
156.448000,1732
156.448500,1720
156.449000,1704
156.449500,1689
156.450000,1694
156.450500,1715
156.451000,1797
156.451500,1873
156.452000,1871
156.452500,1832
156.453000,1806
156.453500,1814
156.454000,1825
156.454500,1906
156.455000,1993
156.455500,2061
156.456000,2052
156.456500,2022
156.457000,2018
156.457500,2011
156.458000,1955
156.458500,1900
156.459000,1873
156.459500,1844
156.460000,1825
156.460500,1818
156.461000,1809
156.461500,1797
156.462000,1797
156.462500,1819
156.463000,1815
156.463500,1803
156.464000,1793
156.464500,1770
156.465000,1739
156.465500,1719
156.466000,1727
156.466500,1722
156.467000,1688
156.467500,1665
156.468000,1687
156.468500,1690
156.469000,1703
156.469500,1725
156.470000,1743
156.470500,1731
156.471000,1715
156.471500,1698
156.472000,1680
156.472500,1693
156.473000,1700
156.473500,1699
156.474000,1685
156.474500,1696
156.475000,1776
156.475500,1846
156.476000,1876
156.476500,1918
156.477000,1945
156.477500,1948
156.478000,1905
156.478500,1866
156.479000,1844
156.479500,1817
156.480000,1802
156.480500,1804
156.481000,1808
156.481500,1799
156.482000,1841
156.482500,1883
156.483000,1852
156.483500,1800
156.484000,1768
156.484500,1766
156.485000,1764
156.485500,1790
156.486000,1780
156.486500,1753
156.487000,1751
156.487500,1792
156.488000,1811
156.488500,1803
156.489000,1788
156.489500,1787
156.490000,1779
156.490500,1784
156.491000,1797
156.491500,1804
156.492000,1817
156.492500,1828
156.493000,1823
156.493500,1803
156.494000,1757
156.494500,1746
156.495000,1757
156.495500,1734
156.496000,1713
156.496500,1733
156.497000,1752
156.497500,1751
156.498000,1828
156.498500,1902
156.499000,1938
156.499500,1942
156.500000,1962
156.500500,1965
156.501000,1914
156.501500,1836
156.502000,1818
156.502500,1795
156.503000,1791
156.503500,1800
156.504000,1800
156.504500,1815
156.505000,1856
156.505500,1872
156.506000,1815
156.506500,1737
156.507000,1725
156.507500,1712
156.508000,1676
156.508500,1630
156.509000,1633
156.509500,1666
156.510000,1678
156.510500,1690
156.511000,1737
156.511500,1792
156.512000,1845
156.512500,1894
156.513000,1926
156.513500,1907
156.514000,1861
156.514500,1860
156.515000,1876
156.515500,1862
156.516000,1877
156.516500,1880
156.517000,1870
156.517500,1862
156.518000,1860
156.518500,1849
156.519000,1829
156.519500,1820
156.520000,1831
156.520500,1817
156.521000,1796
156.521500,1791
156.522000,1786
156.522500,1771
156.523000,1740
156.523500,1722
156.524000,1735
156.524500,1742
156.525000,1770
156.525500,1774
156.526000,1785
156.526500,1814
156.527000,1836
156.527500,1839
156.528000,1832
156.528500,1825
156.529000,1838
156.529500,1824
156.530000,1786
156.530500,1742
156.531000,1720
156.531500,1721
156.532000,1724
156.532500,1730
156.533000,1733
156.533500,1751
156.534000,1788
156.534500,1815
156.535000,1854
156.535500,1886
156.536000,1891
156.536500,1861
156.537000,1837
156.537500,1834
156.538000,1846
156.538500,1808
156.539000,1766
156.539500,1748
156.540000,1749
156.540500,1721
156.541000,1694
156.541500,1651
156.542000,1612
156.542500,1624
156.543000,1677
156.543500,1724
156.544000,1738
156.544500,1783
156.545000,1901
156.545500,2000
156.546000,1990
156.546500,1946
156.547000,1866
156.547500,1806
156.548000,1799
156.548500,1813
156.549000,1807
156.549500,1781
156.550000,1780
156.550500,1811
156.551000,1806
156.551500,1782
156.552000,1797
156.552500,1766
156.553000,1692
156.553500,1658
156.554000,1668
156.554500,1674
156.555000,1693
156.555500,1769
156.556000,1806
156.556500,1817
156.557000,1825
156.557500,1823
156.558000,1784
156.558500,1759
156.559000,1762
156.559500,1775
156.560000,1766
156.560500,1801
156.561000,1874
156.561500,1906
156.562000,1901
156.562500,1905
156.563000,1944
156.563500,1944
156.564000,1927
156.564500,1912
156.565000,1901
156.565500,1858
156.566000,1836
156.566500,1833
156.567000,1826
156.567500,1819
156.568000,1833
156.568500,1828
156.569000,1806
156.569500,1799
156.570000,1809
156.570500,1799
156.571000,1757
156.571500,1729
156.572000,1760
156.572500,1774
156.573000,1777
156.573500,1781
156.574000,1777
156.574500,1741
156.575000,1705
156.575500,1709
156.576000,1722
156.576500,1710
156.577000,1747
156.577500,1807
156.578000,1871
156.578500,1940
156.579000,1994
156.579500,1996
156.580000,1943
156.580500,1877
156.581000,1819
156.581500,1758
156.582000,1726
156.582500,1734
156.583000,1745
156.583500,1727
156.584000,1711
156.584500,1752
156.585000,1791
156.585500,1802
156.586000,1783
156.586500,1789
156.587000,1809
156.587500,1811
156.588000,1806
156.588500,1793
156.589000,1747
156.589500,1734
156.590000,1708
156.590500,1646
156.591000,1609
156.591500,1627
156.592000,1675
156.592500,1731
156.593000,1789
156.593500,1854
156.594000,1891
156.594500,1921
156.595000,1923
156.595500,1904
156.596000,1855
156.596500,1807
156.597000,1793
156.597500,1781
156.598000,1781
156.598500,1823
156.599000,1852
156.599500,1833
156.600000,1797
156.600500,1777
156.601000,1725
156.601500,1638
156.602000,1610
156.602500,1653
156.603000,1709
156.603500,1789
156.604000,1883
156.604500,1938
156.605000,1952
156.605500,1968
156.606000,1984
156.606500,1943
156.607000,1906
156.607500,1878
156.608000,1815
156.608500,1733
156.609000,1672
156.609500,1641
156.610000,1620
156.610500,1603
156.611000,1635
156.611500,1685
156.612000,1751
156.612500,1829
156.613000,1891
156.613500,1921
156.614000,1930
156.614500,1942
156.615000,1972
156.615500,1933
156.616000,1913
156.616500,1908
156.617000,1903
156.617500,1877
156.618000,1845
156.618500,1844
156.619000,1832
156.619500,1784
156.620000,1761
156.620500,1726
156.621000,1701
156.621500,1699
156.622000,1760
156.622500,1824
156.623000,1857
156.623500,1829
156.624000,1769
156.624500,1692
156.625000,1645
156.625500,1637
156.626000,1636
156.626500,1639
156.627000,1701
156.627500,1814
156.628000,1913
156.628500,1951
156.629000,1964
156.629500,1953
156.630000,1898
156.630500,1841
156.631000,1810
156.631500,1789
156.632000,1761
156.632500,1752
156.633000,1771
156.633500,1800
156.634000,1830
156.634500,1846
156.635000,1852
156.635500,1822
156.636000,1817
156.636500,1834
156.637000,1837
156.637500,1828
156.638000,1829
156.638500,1844
156.639000,1804
156.639500,1725
156.640000,1674
156.640500,1646
156.641000,1601
156.641500,1574
156.642000,1547
156.642500,1570
156.643000,1648
156.643500,1776
156.644000,1874
156.644500,1897
156.645000,1924
156.645500,1989
156.646000,1977
156.646500,1947
156.647000,1923
156.647500,1910
156.648000,1878
156.648500,1848
156.649000,1829
156.649500,1785
156.650000,1736
156.650500,1749
156.651000,1732
156.651500,1704
156.652000,1711
156.652500,1749
156.653000,1789
156.653500,1819
156.654000,1846
156.654500,1874
156.655000,1841
156.655500,1765
156.656000,1730
156.656500,1656
156.657000,1607
156.657500,1588
156.658000,1597
156.658500,1642
156.659000,1639
156.659500,1636
156.660000,1713
156.660500,1789
156.661000,1918
156.661500,2056
156.662000,2098
156.662500,2085
156.663000,2083
156.663500,2097
156.664000,2058
156.664500,1970
156.665000,1920
156.665500,1883
156.666000,1855
156.666500,1818
156.667000,1730
156.667500,1649
156.668000,1584
156.668500,1577
156.669000,1587
156.669500,1600
156.670000,1639
156.670500,1701
156.671000,1738
156.671500,1762
156.672000,1791
156.672500,1865
156.673000,1907
156.673500,1948
156.674000,1955
156.674500,1944
156.675000,1934
156.675500,1922
156.676000,1898
156.676500,1864
156.677000,1850
156.677500,1854
156.678000,1871
156.678500,1862
156.679000,1849
156.679500,1843
156.680000,1820
156.680500,1766
156.681000,1764
156.681500,1772
156.682000,1765
156.682500,1756
156.683000,1745
156.683500,1744
156.684000,1733
156.684500,1734
156.685000,1749
156.685500,1736
156.686000,1735
156.686500,1753
156.687000,1764
156.687500,1748
156.688000,1741
156.688500,1742
156.689000,1742
156.689500,1792
156.690000,1834
156.690500,1833
156.691000,1804
156.691500,1797
156.692000,1830
156.692500,1869
156.693000,1894
156.693500,1901
156.694000,1888
156.694500,1849
156.695000,1824
156.695500,1833
156.696000,1843
156.696500,1810
156.697000,1772
156.697500,1776
156.698000,1776
156.698500,1760
156.699000,1764
156.699500,1781
156.700000,1791
156.700500,1778
156.701000,1769
156.701500,1721
156.702000,1647
156.702500,1648
156.703000,1661
156.703500,1693
156.704000,1745
156.704500,1826
156.705000,1890
156.705500,1918
156.706000,1946
156.706500,1956
156.707000,1900
156.707500,1854
156.708000,1842
156.708500,1804
156.709000,1690
156.709500,1603
156.710000,1603
156.710500,1584
156.711000,1609
156.711500,1681
156.712000,1777
156.712500,1881
156.713000,1967
156.713500,1960
156.714000,1913
156.714500,1870
156.715000,1869
156.715500,1854
156.716000,1860
156.716500,1821
156.717000,1790
156.717500,1780
156.718000,1759
156.718500,1765
156.719000,1783
156.719500,1785
156.720000,1761
156.720500,1747
156.721000,1742
156.721500,1721
156.722000,1687
156.722500,1731
156.723000,1782
156.723500,1797
156.724000,1812
156.724500,1827
156.725000,1820
156.725500,1765
156.726000,1720
156.726500,1715
156.727000,1730
156.727500,1761
156.728000,1810
156.728500,1839
156.729000,1899
156.729500,1955
156.730000,1956
156.730500,1901
156.731000,1841
156.731500,1812
156.732000,1783
156.732500,1751
156.733000,1783
156.733500,1823
156.734000,1841
156.734500,1857
156.735000,1895
156.735500,1933
156.736000,1917
156.736500,1859
156.737000,1828
156.737500,1785
156.738000,1741
156.738500,1720
156.739000,1723
156.739500,1720
156.740000,1732
156.740500,1778
156.741000,1790
156.741500,1797
156.742000,1790
156.742500,1799
156.743000,1806
156.743500,1805
156.744000,1809
156.744500,1787
156.745000,1730
156.745500,1725
156.746000,1695
156.746500,1637
156.747000,1621
156.747500,1646
156.748000,1681
156.748500,1699
156.749000,1656
156.749500,1653
156.750000,1696
156.750500,1714
156.751000,1732
156.751500,1772
156.752000,1837
156.752500,1951
156.753000,2092
156.753500,2097
156.754000,1982
156.754500,1887
156.755000,1804
156.755500,1764
156.756000,1774
156.756500,1868
156.757000,1968
156.757500,2008
156.758000,2014
156.758500,1995
156.759000,1920
156.759500,1841
156.760000,1796
156.760500,1751
156.761000,1723
156.761500,1716
156.762000,1753
156.762500,1783
156.763000,1833
156.763500,1858
156.764000,1853
156.764500,1830
156.765000,1835
156.765500,1827
156.766000,1799
156.766500,1750
156.767000,1716
156.767500,1644
156.768000,1620
156.768500,1657
156.769000,1724
156.769500,1771
156.770000,1813
156.770500,1863
156.771000,1947
156.771500,1972
156.772000,1944
156.772500,1914
156.773000,1890
156.773500,1854
156.774000,1834
156.774500,1846
156.775000,1832
156.775500,1791
156.776000,1796
156.776500,1797
156.777000,1778
156.777500,1762
156.778000,1772
156.778500,1790
156.779000,1793
156.779500,1799
156.780000,1798
156.780500,1760
156.781000,1742
156.781500,1746
156.782000,1745
156.782500,1704
156.783000,1671
156.783500,1672
156.784000,1642
156.784500,1590
156.785000,1564
156.785500,1552
156.786000,1583
156.786500,1642
156.787000,1736
156.787500,1786
156.788000,1801
156.788500,1815
156.789000,1865
156.789500,1895
156.790000,1948
156.790500,2000
156.791000,2017
156.791500,2015
156.792000,1977
156.792500,1944
156.793000,1893
156.793500,1851
156.794000,1853
156.794500,1860
156.795000,1853
156.795500,1840
156.796000,1857
156.796500,1848
156.797000,1794
156.797500,1786
156.798000,1767
156.798500,1740
156.799000,1726
156.799500,1728
156.800000,1699
156.800500,1660
156.801000,1673
156.801500,1727
156.802000,1718
156.802500,1704
156.803000,1791
156.803500,1919
156.804000,1912
156.804500,1836
156.805000,1809
156.805500,1812
156.806000,1792
156.806500,1787
156.807000,1780
156.807500,1770
156.808000,1790
156.808500,1853
156.809000,1907
156.809500,1917
156.810000,1905
156.810500,1861
156.811000,1807
156.811500,1754
156.812000,1688
156.812500,1617
156.813000,1443
156.813500,1350
156.814000,1373
156.814500,1468
156.815000,1640
156.815500,1857
156.816000,2086
156.816500,2258
156.817000,2253
156.817500,2158
156.818000,2046
156.818500,1926
156.819000,1849
156.819500,1850
156.820000,1841
156.820500,1808
156.821000,1793
156.821500,1779
156.822000,1756
156.822500,1750
156.823000,1782
156.823500,1808
156.824000,1807
156.824500,1827
156.825000,1840
156.825500,1822
156.826000,1798
156.826500,1794
156.827000,1777
156.827500,1720
156.828000,1680
156.828500,1716
156.829000,1754
156.829500,1781
156.830000,1831
156.830500,1864
156.831000,1879
156.831500,1868
156.832000,1833
156.832500,1812
156.833000,1789
156.833500,1790
156.834000,1797
156.834500,1796
156.835000,1812
156.835500,1849
156.836000,1860
156.836500,1841
156.837000,1792
156.837500,1762
156.838000,1725
156.838500,1707
156.839000,1719
156.839500,1740
156.840000,1743
156.840500,1750
156.841000,1749
156.841500,1677
156.842000,1588
156.842500,1588
156.843000,1600
156.843500,1643
156.844000,1759
156.844500,1893
156.845000,2016
156.845500,2089
156.846000,2096
156.846500,2080
156.847000,2011
156.847500,1916
156.848000,1851
156.848500,1801
156.849000,1752
156.849500,1722
156.850000,1720
156.850500,1724
156.851000,1699
156.851500,1704
156.852000,1786
156.852500,1812
156.853000,1769
156.853500,1759
156.854000,1790
156.854500,1821
156.855000,1843
156.855500,1856
156.856000,1844
156.856500,1843
156.857000,1846
156.857500,1836
156.858000,1828
156.858500,1818
156.859000,1819
156.859500,1846
156.860000,1852
156.860500,1837
156.861000,1790
156.861500,1728
156.862000,1676
156.862500,1657
156.863000,1669
156.863500,1680
156.864000,1703
156.864500,1752
156.865000,1796
156.865500,1838
156.866000,1849
156.866500,1803
156.867000,1776
156.867500,1786
156.868000,1800
156.868500,1754
156.869000,1755
156.869500,1745
156.870000,1725
156.870500,1713
156.871000,1725
156.871500,1762
156.872000,1796
156.872500,1826
156.873000,1863
156.873500,1858
156.874000,1870
156.874500,1904
156.875000,1945
156.875500,1949
156.876000,1911
156.876500,1891
156.877000,1905
156.877500,1883
156.878000,1854
156.878500,1812
156.879000,1731
156.879500,1658
156.880000,1628
156.880500,1649
156.881000,1675
156.881500,1697
156.882000,1780
156.882500,1862
156.883000,1901
156.883500,1910
156.884000,1900
156.884500,1886
156.885000,1838
156.885500,1781
156.886000,1774
156.886500,1782
156.887000,1817
156.887500,1849
156.888000,1838
156.888500,1824
156.889000,1798
156.889500,1784
156.890000,1722
156.890500,1706
156.891000,1749
156.891500,1791
156.892000,1789
156.892500,1797
156.893000,1829
156.893500,1848
156.894000,1825
156.894500,1817
156.895000,1834
156.895500,1832
156.896000,1808
156.896500,1769
156.897000,1741
156.897500,1730
156.898000,1748
156.898500,1796
156.899000,1809
156.899500,1818
156.900000,1854
156.900500,1860
156.901000,1834
156.901500,1815
156.902000,1787
156.902500,1752
156.903000,1760
156.903500,1782
156.904000,1744
156.904500,1708
156.905000,1733
156.905500,1758
156.906000,1791
156.906500,1859
156.907000,1974
156.907500,2002
156.908000,1944
156.908500,1879
156.909000,1854
156.909500,1828
156.910000,1806
156.910500,1810
156.911000,1815
156.911500,1783
156.912000,1770
156.912500,1780
156.913000,1784
156.913500,1778
156.914000,1794
156.914500,1836
156.915000,1833
156.915500,1792
156.916000,1775
156.916500,1762
156.917000,1743
156.917500,1714
156.918000,1721
156.918500,1733
156.919000,1735
156.919500,1728
156.920000,1731
156.920500,1722
156.921000,1757
156.921500,1806
156.922000,1849
156.922500,1838
156.923000,1817
156.923500,1833
156.924000,1823
156.924500,1776
156.925000,1778
156.925500,1770
156.926000,1773
156.926500,1798
156.927000,1871
156.927500,1914
156.928000,1864
156.928500,1825
156.929000,1811
156.929500,1774
156.930000,1751
156.930500,1753
156.931000,1765
156.931500,1748
156.932000,1754
156.932500,1798
156.933000,1816
156.933500,1814
156.934000,1841
156.934500,1853
156.935000,1826
156.935500,1793
156.936000,1800
156.936500,1809
156.937000,1812
156.937500,1829
156.938000,1865
156.938500,1865
156.939000,1870
156.939500,1860
156.940000,1830
156.940500,1795
156.941000,1795
156.941500,1812
156.942000,1788
156.942500,1785
156.943000,1788
156.943500,1789
156.944000,1768
156.944500,1767
156.945000,1798
156.945500,1817
156.946000,1804
156.946500,1807
156.947000,1780
156.947500,1750
156.948000,1720
156.948500,1701
156.949000,1665
156.949500,1606
156.950000,1543
156.950500,1588
156.951000,1655
156.951500,1739
156.952000,1827
156.952500,1919
156.953000,1958
156.953500,1961
156.954000,1948
156.954500,1843
156.955000,1758
156.955500,1717
156.956000,1712
156.956500,1676
156.957000,1625
156.957500,1607
156.958000,1596
156.958500,1639
156.959000,1779
156.959500,1880
156.960000,1987
156.960500,2086
156.961000,2141
156.961500,2114
156.962000,2061
156.962500,2004
156.963000,1945
156.963500,1892
156.964000,1859
156.964500,1850
156.965000,1829
156.965500,1762
156.966000,1702
156.966500,1648
156.967000,1631
156.967500,1658
156.968000,1714
156.968500,1786
156.969000,1833
156.969500,1892
156.970000,1950
156.970500,1919
156.971000,1863
156.971500,1870
156.972000,1863
156.972500,1827
156.973000,1775
156.973500,1742
156.974000,1706
156.974500,1664
156.975000,1640
156.975500,1687
156.976000,1744
156.976500,1804
156.977000,1832
156.977500,1846
156.978000,1846
156.978500,1829
156.979000,1793
156.979500,1791
156.980000,1831
156.980500,1880
156.981000,1894
156.981500,1882
156.982000,1865
156.982500,1880
156.983000,1884
156.983500,1842
156.984000,1806
156.984500,1810
156.985000,1804
156.985500,1763
156.986000,1683
156.986500,1619
156.987000,1608
156.987500,1620
156.988000,1675
156.988500,1710
156.989000,1748
156.989500,1824
156.990000,1863
156.990500,1820
156.991000,1770
156.991500,1742
156.992000,1742
156.992500,1777
156.993000,1837
156.993500,1860
156.994000,1856
156.994500,1876
156.995000,1906
156.995500,1905
156.996000,1888
156.996500,1876
156.997000,1879
156.997500,1856
156.998000,1837
156.998500,1829
156.999000,1804
156.999500,1777
157.000000,1770
157.000500,1779
157.001000,1764
157.001500,1777
157.002000,1830
157.002500,1856
157.003000,1847
157.003500,1844
157.004000,1859
157.004500,1847
157.005000,1810
157.005500,1805
157.006000,1768
157.006500,1736
157.007000,1717
157.007500,1727
157.008000,1750
157.008500,1758
157.009000,1774
157.009500,1800
157.010000,1799
157.010500,1789
157.011000,1803
157.011500,1779
157.012000,1736
157.012500,1709
157.013000,1742
157.013500,1792
157.014000,1796
157.014500,1831
157.015000,1873
157.015500,1867
157.016000,1838
157.016500,1808
157.017000,1796
157.017500,1781
157.018000,1804
157.018500,1788
157.019000,1771
157.019500,1721
157.020000,1710
157.020500,1722
157.021000,1704
157.021500,1722
157.022000,1812
157.022500,1890
157.023000,1917
157.023500,1910
157.024000,1860
157.024500,1821
157.025000,1790
157.025500,1740
157.026000,1704
157.026500,1699
157.027000,1782
157.027500,1847
157.028000,1813
157.028500,1761
157.029000,1736
157.029500,1695
157.030000,1672
157.030500,1695
157.031000,1776
157.031500,1854
157.032000,1903
157.032500,1929
157.033000,1958
157.033500,1961
157.034000,1912
157.034500,1869
157.035000,1811
157.035500,1740
157.036000,1729
157.036500,1759
157.037000,1780
157.037500,1817
157.038000,1883
157.038500,1942
157.039000,1924
157.039500,1910
157.040000,1850
157.040500,1766
157.041000,1689
157.041500,1615
157.042000,1577
157.042500,1560
157.043000,1609
157.043500,1710
157.044000,1807
157.044500,1895
157.045000,1975
157.045500,2015
157.046000,1987
157.046500,1897
157.047000,1838
157.047500,1816
157.048000,1813
157.048500,1838
157.049000,1845
157.049500,1834
157.050000,1813
157.050500,1823
157.051000,1836
157.051500,1843
157.052000,1837
157.052500,1807
157.053000,1760
157.053500,1752
157.054000,1755
157.054500,1726
157.055000,1705
157.055500,1714
157.056000,1759
157.056500,1794
157.057000,1801
157.057500,1851
157.058000,1860
157.058500,1831
157.059000,1827
157.059500,1837
157.060000,1826
157.060500,1787
157.061000,1776
157.061500,1763
157.062000,1757
157.062500,1766
157.063000,1795
157.063500,1831
157.064000,1828
157.064500,1815
157.065000,1807
157.065500,1769
157.066000,1742
157.066500,1739
157.067000,1734
157.067500,1752
157.068000,1805
157.068500,1854
157.069000,1854
157.069500,1829
157.070000,1857
157.070500,1871
157.071000,1853
157.071500,1838
157.072000,1852
157.072500,1836
157.073000,1810
157.073500,1802
157.074000,1804
157.074500,1778
157.075000,1730
157.075500,1702
157.076000,1680
157.076500,1636
157.077000,1640
157.077500,1694
157.078000,1727
157.078500,1777
157.079000,1844
157.079500,1861
157.080000,1842
157.080500,1815
157.081000,1822
157.081500,1896
157.082000,1955
157.082500,1938
157.083000,1870
157.083500,1776
157.084000,1696
157.084500,1663
157.085000,1690
157.085500,1720
157.086000,1740
157.086500,1774
157.087000,1867
157.087500,1974
157.088000,1976
157.088500,1926
157.089000,1886
157.089500,1877
157.090000,1885
157.090500,1852
157.091000,1834
157.091500,1802
157.092000,1760
157.092500,1724
157.093000,1709
157.093500,1716
157.094000,1725
157.094500,1733
157.095000,1770
157.095500,1767
157.096000,1779
157.096500,1821
157.097000,1862
157.097500,1828
157.098000,1733
157.098500,1717
157.099000,1769
157.099500,1805
157.100000,1815
157.100500,1850
157.101000,1891
157.101500,1886
157.102000,1878
157.102500,1879
157.103000,1871
157.103500,1829
157.104000,1824
157.104500,1804
157.105000,1788
157.105500,1780
157.106000,1764
157.106500,1748
157.107000,1739
157.107500,1724
157.108000,1736
157.108500,1728
157.109000,1738
157.109500,1766
157.110000,1799
157.110500,1813
157.111000,1842
157.111500,1887
157.112000,1883
157.112500,1847
157.113000,1818
157.113500,1783
157.114000,1751
157.114500,1745
157.115000,1776
157.115500,1798
157.116000,1793
157.116500,1846
157.117000,1881
157.117500,1878
157.118000,1854
157.118500,1858
157.119000,1820
157.119500,1749
157.120000,1698
157.120500,1674
157.121000,1654
157.121500,1653
157.122000,1693
157.122500,1742
157.123000,1788
157.123500,1847
157.124000,1916
157.124500,1928
157.125000,1914
157.125500,1853
157.126000,1764
157.126500,1655
157.127000,1591
157.127500,1612
157.128000,1651
157.128500,1687
157.129000,1769
157.129500,1845
157.130000,1865
157.130500,1798
157.131000,1700
157.131500,1602
157.132000,1548
157.132500,1604
157.133000,1798
157.133500,1990
157.134000,2068
157.134500,2118
157.135000,2145
157.135500,2091
157.136000,1977
157.136500,1904
157.137000,1833
157.137500,1775
157.138000,1742
157.138500,1739
157.139000,1788
157.139500,1850
157.140000,1879
157.140500,1870
157.141000,1849
157.141500,1831
157.142000,1826
157.142500,1796
157.143000,1792
157.143500,1826
157.144000,1836
157.144500,1803
157.145000,1765
157.145500,1736
157.146000,1674
157.146500,1577
157.147000,1539
157.147500,1558
157.148000,1589
157.148500,1626
157.149000,1703
157.149500,1802
157.150000,1940
157.150500,2040
157.151000,2073
157.151500,2025
157.152000,1980
157.152500,1957
157.153000,1918
157.153500,1861
157.154000,1858
157.154500,1859
157.155000,1847
157.155500,1831
157.156000,1841
157.156500,1857
157.157000,1840
157.157500,1818
157.158000,1814
157.158500,1806
157.159000,1794
157.159500,1777
157.160000,1754
157.160500,1732
157.161000,1738
157.161500,1751
157.162000,1737
157.162500,1694
157.163000,1685
157.163500,1704
157.164000,1707
157.164500,1727
157.165000,1710
157.165500,1676
157.166000,1630
157.166500,1609
157.167000,1652
157.167500,1736
157.168000,1822
157.168500,1901
157.169000,1983
157.169500,2011
157.170000,1970
157.170500,1911
157.171000,1856
157.171500,1812
157.172000,1793
157.172500,1786
157.173000,1791
157.173500,1809
157.174000,1837
157.174500,1846
157.175000,1834
157.175500,1834
157.176000,1846
157.176500,1825
157.177000,1817
157.177500,1834
157.178000,1832
157.178500,1801
157.179000,1780
157.179500,1794
157.180000,1799
157.180500,1797
157.181000,1803
157.181500,1790
157.182000,1769
157.182500,1726
157.183000,1683
157.183500,1660
157.184000,1673
157.184500,1730
157.185000,1803
157.185500,1850
157.186000,1907
157.186500,1933
157.187000,1915
157.187500,1871
157.188000,1846
157.188500,1823
157.189000,1792
157.189500,1770
157.190000,1773
157.190500,1791
157.191000,1789
157.191500,1792
157.192000,1803
157.192500,1788
157.193000,1769
157.193500,1775
157.194000,1784
157.194500,1793
157.195000,1801
157.195500,1799
157.196000,1764
157.196500,1686
157.197000,1547
157.197500,1465
157.198000,1437
157.198500,1444
157.199000,1510
157.199500,1596
157.200000,1748
157.200500,1957
157.201000,2042
157.201500,2024
157.202000,1981
157.202500,1965
157.203000,1971
157.203500,1950
157.204000,1911
157.204500,1891
157.205000,1870
157.205500,1857
157.206000,1864
157.206500,1891
157.207000,1902
157.207500,1906
157.208000,1910
157.208500,1880
157.209000,1851
157.209500,1825
157.210000,1819
157.210500,1804
157.211000,1806
157.211500,1817
157.212000,1805
157.212500,1770
157.213000,1784
157.213500,1787
157.214000,1773
157.214500,1744
157.215000,1742
157.215500,1742
157.216000,1730
157.216500,1670
157.217000,1650
157.217500,1644
157.218000,1644
157.218500,1694
157.219000,1741
157.219500,1794
157.220000,1917
157.220500,1994
157.221000,1979
157.221500,1944
157.222000,1935
157.222500,1894
157.223000,1864
157.223500,1848
157.224000,1847
157.224500,1821
157.225000,1796
157.225500,1806
157.226000,1802
157.226500,1775
157.227000,1780
157.227500,1762
157.228000,1713
157.228500,1659
157.229000,1659
157.229500,1697
157.230000,1723
157.230500,1784
157.231000,1849
157.231500,1885
157.232000,1896
157.232500,1903
157.233000,1884
157.233500,1827
157.234000,1759
157.234500,1759
157.235000,1786
157.235500,1776
157.236000,1787
157.236500,1831
157.237000,1874
157.237500,1884
157.238000,1844
157.238500,1757
157.239000,1702
157.239500,1666
157.240000,1652
157.240500,1662
157.241000,1706
157.241500,1804
157.242000,1926
157.242500,1940
157.243000,1856
157.243500,1770
157.244000,1695
157.244500,1646
157.245000,1627
157.245500,1647
157.246000,1687
157.246500,1781
157.247000,1897
157.247500,1914
157.248000,1846
157.248500,1824
157.249000,1869
157.249500,1931
157.250000,1953
157.250500,1942
157.251000,1902
157.251500,1787
157.252000,1708
157.252500,1716
157.253000,1763
157.253500,1804
157.254000,1869
157.254500,1960
157.255000,2016
157.255500,2005
157.256000,1979
157.256500,1930
157.257000,1877
157.257500,1824
157.258000,1797
157.258500,1780
157.259000,1759
157.259500,1738
157.260000,1741
157.260500,1743
157.261000,1752
157.261500,1738
157.262000,1707
157.262500,1654
157.263000,1598
157.263500,1607
157.264000,1656
157.264500,1684
157.265000,1722
157.265500,1760
157.266000,1853
157.266500,1912
157.267000,1929
157.267500,1931
157.268000,1916
157.268500,1922
157.269000,1883
157.269500,1805
157.270000,1751
157.270500,1725
157.271000,1723
157.271500,1734
157.272000,1769
157.272500,1826
157.273000,1834
157.273500,1808
157.274000,1766
157.274500,1741
157.275000,1747
157.275500,1737
157.276000,1722
157.276500,1751
157.277000,1799
157.277500,1854
157.278000,1863
157.278500,1863
157.279000,1886
157.279500,1931
157.280000,1948
157.280500,1908
157.281000,1899
157.281500,1858
157.282000,1834
157.282500,1819
157.283000,1827
157.283500,1825
157.284000,1805
157.284500,1799
157.285000,1820
157.285500,1814
157.286000,1792
157.286500,1795
157.287000,1791
157.287500,1769
157.288000,1772
157.288500,1793
157.289000,1787
157.289500,1732
157.290000,1715
157.290500,1706
157.291000,1702
157.291500,1715
157.292000,1755
157.292500,1787
157.293000,1800
157.293500,1808
157.294000,1826
157.294500,1812
157.295000,1800
157.295500,1816
157.296000,1838
157.296500,1833
157.297000,1828
157.297500,1833
157.298000,1810
157.298500,1806
157.299000,1812
157.299500,1823
157.300000,1810
157.300500,1773
157.301000,1758
157.301500,1748
157.302000,1724
157.302500,1726
157.303000,1737
157.303500,1744
157.304000,1741
157.304500,1766
157.305000,1807
157.305500,1807
157.306000,1734
157.306500,1687
157.307000,1637
157.307500,1618
157.308000,1652
157.308500,1716
157.309000,1810
157.309500,1925
157.310000,1967
157.310500,1925
157.311000,1861
157.311500,1839
157.312000,1792
157.312500,1709
157.313000,1705
157.313500,1769
157.314000,1822
157.314500,1829
157.315000,1872
157.315500,1885
157.316000,1764
157.316500,1665
157.317000,1667
157.317500,1721
157.318000,1749
157.318500,1792
157.319000,1895
157.319500,2029
157.320000,2081
157.320500,2031
157.321000,1979
157.321500,1921
157.322000,1880
157.322500,1855
157.323000,1821
157.323500,1762
157.324000,1744
157.324500,1789
157.325000,1832
157.325500,1832
157.326000,1845
157.326500,1861
157.327000,1847
157.327500,1826
157.328000,1816
157.328500,1801
157.329000,1775
157.329500,1774
157.330000,1787
157.330500,1775
157.331000,1749
157.331500,1716
157.332000,1715
157.332500,1716
157.333000,1729
157.333500,1766
157.334000,1793
157.334500,1826
157.335000,1887
157.335500,1905
157.336000,1855
157.336500,1801
157.337000,1801
157.337500,1782
157.338000,1752
157.338500,1736
157.339000,1710
157.339500,1686
157.340000,1698
157.340500,1748
157.341000,1800
157.341500,1811
157.342000,1845
157.342500,1844
157.343000,1821
157.343500,1817
157.344000,1819
157.344500,1801
157.345000,1781
157.345500,1791
157.346000,1830
157.346500,1843
157.347000,1863
157.347500,1882
157.348000,1859
157.348500,1813
157.349000,1764
157.349500,1745
157.350000,1759
157.350500,1730
157.351000,1739
157.351500,1784
157.352000,1813
157.352500,1808
157.353000,1811
157.353500,1804
157.354000,1787
157.354500,1793
157.355000,1798
157.355500,1793
157.356000,1742
157.356500,1710
157.357000,1649
157.357500,1516
157.358000,1441
157.358500,1456
157.359000,1501
157.359500,1619
157.360000,1802
157.360500,2025
157.361000,2225
157.361500,2286
157.362000,2244
157.362500,2163
157.363000,2052
157.363500,1950
157.364000,1892
157.364500,1844
157.365000,1824
157.365500,1829
157.366000,1829
157.366500,1803
157.367000,1789
157.367500,1801
157.368000,1790
157.368500,1789
157.369000,1800
157.369500,1776
157.370000,1738
157.370500,1743
157.371000,1773
157.371500,1754
157.372000,1780
157.372500,1797
157.373000,1806
157.373500,1783
157.374000,1764
157.374500,1758
157.375000,1748
157.375500,1718
157.376000,1745
157.376500,1732
157.377000,1718
157.377500,1712
157.378000,1730
157.378500,1757
157.379000,1781
157.379500,1822
157.380000,1858
157.380500,1858
157.381000,1851
157.381500,1857
157.382000,1867
157.382500,1856
157.383000,1844
157.383500,1854
157.384000,1843
157.384500,1808
157.385000,1791
157.385500,1756
157.386000,1727
157.386500,1722
157.387000,1747
157.387500,1769
157.388000,1765
157.388500,1793
157.389000,1839
157.389500,1841
157.390000,1828
157.390500,1832
157.391000,1842
157.391500,1833
157.392000,1811
157.392500,1815
157.393000,1783
157.393500,1767
157.394000,1768
157.394500,1782
157.395000,1787
157.395500,1815
157.396000,1856
157.396500,1872
157.397000,1831
157.397500,1804
157.398000,1752
157.398500,1713
157.399000,1673
157.399500,1672
157.400000,1706
157.400500,1721
157.401000,1738
157.401500,1774
157.402000,1792
157.402500,1827
157.403000,1852
157.403500,1814
157.404000,1775
157.404500,1730
157.405000,1709
157.405500,1690
157.406000,1682
157.406500,1734
157.407000,1832
157.407500,1900
157.408000,1941
157.408500,1990
157.409000,1976
157.409500,1938
157.410000,1925
157.410500,1930
157.411000,1889
157.411500,1828
157.412000,1773
157.412500,1721
157.413000,1651
157.413500,1598
157.414000,1589
157.414500,1580
157.415000,1627
157.415500,1696
157.416000,1779
157.416500,1826
157.417000,1883
157.417500,1940
157.418000,1958
157.418500,1934
157.419000,1941
157.419500,1902
157.420000,1772
157.420500,1695
157.421000,1669
157.421500,1614
157.422000,1576
157.422500,1624
157.423000,1804
157.423500,1943
157.424000,1975
157.424500,1980
157.425000,1986
157.425500,1973
157.426000,1945
157.426500,1933
157.427000,1886
157.427500,1789
157.428000,1721
157.428500,1651
157.429000,1609
157.429500,1640
157.430000,1726
157.430500,1770
157.431000,1800
157.431500,1877
157.432000,1906
157.432500,1899
157.433000,1892
157.433500,1931
157.434000,1956
157.434500,1912
157.435000,1859
157.435500,1850
157.436000,1819
157.436500,1785
157.437000,1778
157.437500,1780
157.438000,1767
157.438500,1732
157.439000,1689
157.439500,1658
157.440000,1621
157.440500,1616
157.441000,1650
157.441500,1694
157.442000,1802
157.442500,1945
157.443000,2016
157.443500,2010
157.444000,1941
157.444500,1868
157.445000,1798
157.445500,1769
157.446000,1765
157.446500,1767
157.447000,1764
157.447500,1768
157.448000,1788
157.448500,1812
157.449000,1866
157.449500,1903
157.450000,1888
157.450500,1849
157.451000,1825
157.451500,1830
157.452000,1844
157.452500,1802
157.453000,1757
157.453500,1675
157.454000,1596
157.454500,1569
157.455000,1562
157.455500,1584
157.456000,1652
157.456500,1753
157.457000,1836
157.457500,1872
157.458000,1905
157.458500,1947
157.459000,1966
157.459500,1934
157.460000,1912
157.460500,1888
157.461000,1779
157.461500,1718
157.462000,1714
157.462500,1719
157.463000,1739
157.463500,1770
157.464000,1831
157.464500,1886
157.465000,1891
157.465500,1892
157.466000,1903
157.466500,1885
157.467000,1869
157.467500,1855
157.468000,1840
157.468500,1788
157.469000,1732
157.469500,1704
157.470000,1689
157.470500,1663
157.471000,1644
157.471500,1643
157.472000,1689
157.472500,1780
157.473000,1824
157.473500,1826
157.474000,1814
157.474500,1836
157.475000,1884
157.475500,1915
157.476000,1978
157.476500,1996
157.477000,1921
157.477500,1844
157.478000,1824
157.478500,1839
157.479000,1820
157.479500,1794
157.480000,1762
157.480500,1721
157.481000,1697
157.481500,1711
157.482000,1769
157.482500,1829
157.483000,1842
157.483500,1868
157.484000,1877
157.484500,1858
157.485000,1828
157.485500,1814
157.486000,1781
157.486500,1719
157.487000,1703
157.487500,1645
157.488000,1603
157.488500,1608
157.489000,1653
157.489500,1687
157.490000,1704
157.490500,1717
157.491000,1762
157.491500,1769
157.492000,1784
157.492500,1856
157.493000,1891
157.493500,1876
157.494000,1849
157.494500,1875
157.495000,1919
157.495500,1942
157.496000,1943
157.496500,1924
157.497000,1920
157.497500,1915
157.498000,1897
157.498500,1875
157.499000,1833
157.499500,1796
157.500000,1817
157.500500,1816
157.501000,1804
157.501500,1811
157.502000,1826
157.502500,1826
157.503000,1816
157.503500,1818
157.504000,1808
157.504500,1817
157.505000,1828
157.505500,1813
157.506000,1781
157.506500,1763
157.507000,1774
157.507500,1773
157.508000,1772
157.508500,1816
157.509000,1778
157.509500,1712
157.510000,1665
157.510500,1646
157.511000,1634
157.511500,1630
157.512000,1670
157.512500,1765
157.513000,1788
157.513500,1766
157.514000,1781
157.514500,1807
157.515000,1826
157.515500,1849
157.516000,1907
157.516500,1936
157.517000,1899
157.517500,1854
157.518000,1817
157.518500,1792
157.519000,1791
157.519500,1808
157.520000,1828
157.520500,1842
157.521000,1872
157.521500,1881
157.522000,1840
157.522500,1803
157.523000,1796
157.523500,1785
157.524000,1763
157.524500,1760
157.525000,1780
157.525500,1789
157.526000,1820
157.526500,1860
157.527000,1874
157.527500,1818
157.528000,1777
157.528500,1770
157.529000,1743
157.529500,1696
157.530000,1661
157.530500,1632
157.531000,1615
157.531500,1610
157.532000,1641
157.532500,1706
157.533000,1769
157.533500,1877
157.534000,1965
157.534500,1983
157.535000,1954
157.535500,1943
157.536000,1909
157.536500,1856
157.537000,1842
157.537500,1869
157.538000,1878
157.538500,1833
157.539000,1793
157.539500,1771
157.540000,1750
157.540500,1724
157.541000,1727
157.541500,1738
157.542000,1741
157.542500,1789
157.543000,1846
157.543500,1840
157.544000,1818
157.544500,1826
157.545000,1815
157.545500,1775
157.546000,1764
157.546500,1803
157.547000,1831
157.547500,1759
157.548000,1701
157.548500,1662
157.549000,1624
157.549500,1627
157.550000,1706
157.550500,1807
157.551000,1905
157.551500,1988
157.552000,2065
157.552500,2054
157.553000,1937
157.553500,1837
157.554000,1779
157.554500,1717
157.555000,1679
157.555500,1632
157.556000,1638
157.556500,1700
157.557000,1735
157.557500,1760
157.558000,1818
157.558500,1914
157.559000,1997
157.559500,2001
157.560000,1943
157.560500,1900
157.561000,1852
157.561500,1815
157.562000,1813
157.562500,1836
157.563000,1846
157.563500,1827
157.564000,1800
157.564500,1784
157.565000,1758
157.565500,1743
157.566000,1774
157.566500,1811
157.567000,1823
157.567500,1838
157.568000,1857
157.568500,1830
157.569000,1773
157.569500,1749
157.570000,1732
157.570500,1708
157.571000,1697
157.571500,1712
157.572000,1733
157.572500,1777
157.573000,1811
157.573500,1849
157.574000,1855
157.574500,1845
157.575000,1850
157.575500,1818
157.576000,1758
157.576500,1715
157.577000,1701
157.577500,1707
157.578000,1725
157.578500,1780
157.579000,1880
157.579500,1948
157.580000,1951
157.580500,1932
157.581000,1907
157.581500,1855
157.582000,1821
157.582500,1811
157.583000,1774
157.583500,1752
157.584000,1744
157.584500,1731
157.585000,1718
157.585500,1722
157.586000,1756
157.586500,1767
157.587000,1768
157.587500,1805
157.588000,1837
157.588500,1830
157.589000,1791
157.589500,1753
157.590000,1720
157.590500,1708
157.591000,1725
157.591500,1775
157.592000,1806
157.592500,1844
157.593000,1905
157.593500,1936
157.594000,1901
157.594500,1850
157.595000,1820
157.595500,1802
157.596000,1774
157.596500,1767
157.597000,1760
157.597500,1742
157.598000,1739
157.598500,1745
157.599000,1724
157.599500,1692
157.600000,1677
157.600500,1650
157.601000,1634
157.601500,1667
157.602000,1785
157.602500,1882
157.603000,1922
157.603500,1973
157.604000,2017
157.604500,1968
157.605000,1899
157.605500,1873
157.606000,1840
157.606500,1794
157.607000,1774
157.607500,1799
157.608000,1836
157.608500,1874
157.609000,1894
157.609500,1896
157.610000,1867
157.610500,1844
157.611000,1817
157.611500,1784
157.612000,1748
157.612500,1732
157.613000,1741
157.613500,1742
157.614000,1722
157.614500,1704
157.615000,1699
157.615500,1706
157.616000,1751
157.616500,1812
157.617000,1847
157.617500,1880
157.618000,1908
157.618500,1925
157.619000,1899
157.619500,1833
157.620000,1785
157.620500,1757
157.621000,1743
157.621500,1753
157.622000,1783
157.622500,1808
157.623000,1854
157.623500,1876
157.624000,1867
157.624500,1830
157.625000,1798
157.625500,1780
157.626000,1753
157.626500,1704
157.627000,1703
157.627500,1702
157.628000,1739
157.628500,1750
157.629000,1776
157.629500,1802
157.630000,1796
157.630500,1802
157.631000,1837
157.631500,1846
157.632000,1859
157.632500,1886
157.633000,1867
157.633500,1829
157.634000,1806
157.634500,1815
157.635000,1836
157.635500,1818
157.636000,1789
157.636500,1737
157.637000,1705
157.637500,1686
157.638000,1677
157.638500,1663
157.639000,1670
157.639500,1722
157.640000,1819
157.640500,1865
157.641000,1872
157.641500,1897
157.642000,1916
157.642500,1913
157.643000,1895
157.643500,1876
157.644000,1858
157.644500,1829
157.645000,1787
157.645500,1783
157.646000,1768
157.646500,1773
157.647000,1801
157.647500,1793
157.648000,1753
157.648500,1748
157.649000,1746
157.649500,1667
157.650000,1563
157.650500,1527
157.651000,1558
157.651500,1615
157.652000,1717
157.652500,1892
157.653000,2030
157.653500,2039
157.654000,2005
157.654500,1985
157.655000,1934
157.655500,1900
157.656000,1882
157.656500,1845
157.657000,1813
157.657500,1807
157.658000,1816
157.658500,1820
157.659000,1813
157.659500,1850
157.660000,1868
157.660500,1857
157.661000,1831
157.661500,1827
157.662000,1828
157.662500,1823
157.663000,1822
157.663500,1813
157.664000,1763
157.664500,1731
157.665000,1744
157.665500,1761
157.666000,1760
157.666500,1756
157.667000,1769
157.667500,1771
157.668000,1781
157.668500,1823
157.669000,1833
157.669500,1825
157.670000,1807
157.670500,1766
157.671000,1736
157.671500,1721
157.672000,1711
157.672500,1723
157.673000,1760
157.673500,1806
157.674000,1800
157.674500,1753
157.675000,1728
157.675500,1766
157.676000,1781
157.676500,1762
157.677000,1774
157.677500,1886
157.678000,1957
157.678500,1935
157.679000,1889
157.679500,1869
157.680000,1882
157.680500,1866
157.681000,1856
157.681500,1849
157.682000,1821
157.682500,1810
157.683000,1817
157.683500,1811
157.684000,1732
157.684500,1628
157.685000,1578
157.685500,1467
157.686000,1436
157.686500,1467
157.687000,1555
157.687500,1710
157.688000,1862
157.688500,1989
157.689000,2083
157.689500,2079
157.690000,2072
157.690500,2021
157.691000,1928
157.691500,1852
157.692000,1825
157.692500,1814
157.693000,1778
157.693500,1752
157.694000,1755
157.694500,1746
157.695000,1765
157.695500,1800
157.696000,1815
157.696500,1778
157.697000,1772
157.697500,1824
157.698000,1864
157.698500,1843
157.699000,1829
157.699500,1839
157.700000,1860
157.700500,1876
157.701000,1888
157.701500,1872
157.702000,1867
157.702500,1868
157.703000,1812
157.703500,1721
157.704000,1691
157.704500,1707
157.705000,1733
157.705500,1759
157.706000,1800
157.706500,1845
157.707000,1872
157.707500,1878
157.708000,1892
157.708500,1876
157.709000,1826
157.709500,1801
157.710000,1807
157.710500,1805
157.711000,1775
157.711500,1733
157.712000,1727
157.712500,1715
157.713000,1733
157.713500,1772
157.714000,1774
157.714500,1760
157.715000,1779
157.715500,1811
157.716000,1807
157.716500,1811
157.717000,1813
157.717500,1814
157.718000,1803
157.718500,1802
157.719000,1823
157.719500,1831
157.720000,1821
157.720500,1826
157.721000,1808
157.721500,1786
157.722000,1775
157.722500,1739
157.723000,1686
157.723500,1654
157.724000,1653
157.724500,1687
157.725000,1699
157.725500,1717
157.726000,1788
157.726500,1855
157.727000,1838
157.727500,1812
157.728000,1803
157.728500,1813
157.729000,1829
157.729500,1898
157.730000,1924
157.730500,1924
157.731000,1898
157.731500,1888
157.732000,1878
157.732500,1857
157.733000,1852
157.733500,1866
157.734000,1842
157.734500,1824
157.735000,1832
157.735500,1822
157.736000,1777
157.736500,1752
157.737000,1735
157.737500,1695
157.738000,1682
157.738500,1692
157.739000,1730
157.739500,1741
157.740000,1717
157.740500,1711
157.741000,1711
157.741500,1700
157.742000,1736
157.742500,1777
157.743000,1830
157.743500,1843
157.744000,1851
157.744500,1844
157.745000,1863
157.745500,1892
157.746000,1898
157.746500,1853
157.747000,1843
157.747500,1847
157.748000,1863
157.748500,1862
157.749000,1816
157.749500,1760
157.750000,1716
157.750500,1682
157.751000,1680
157.751500,1697
157.752000,1728
157.752500,1824
157.753000,1915
157.753500,1906
157.754000,1871
157.754500,1868
157.755000,1904
157.755500,1922
157.756000,1899
157.756500,1892
157.757000,1846
157.757500,1748
157.758000,1658
157.758500,1645
157.759000,1650
157.759500,1672
157.760000,1756
157.760500,1839
157.761000,1876
157.761500,1895
157.762000,1929
157.762500,1900
157.763000,1790
157.763500,1719
157.764000,1720
157.764500,1742
157.765000,1719
157.765500,1717
157.766000,1754
157.766500,1778
157.767000,1764
157.767500,1775
157.768000,1820
157.768500,1867
157.769000,1907
157.769500,1924
157.770000,1907
157.770500,1889
157.771000,1892
157.771500,1884
157.772000,1863
157.772500,1842
157.773000,1844
157.773500,1823
157.774000,1780
157.774500,1775
157.775000,1783
157.775500,1769
157.776000,1764
157.776500,1787
157.777000,1796
157.777500,1783
157.778000,1787
157.778500,1804
157.779000,1792
157.779500,1780
157.780000,1815
157.780500,1825
157.781000,1810
157.781500,1797
157.782000,1802
157.782500,1801
157.783000,1780
157.783500,1780
157.784000,1790
157.784500,1764
157.785000,1734
157.785500,1743
157.786000,1771
157.786500,1773
157.787000,1775
157.787500,1800
157.788000,1812
157.788500,1779
157.789000,1754
157.789500,1740
157.790000,1716
157.790500,1723
157.791000,1756
157.791500,1778
157.792000,1800
157.792500,1871
157.793000,1899
157.793500,1888
157.794000,1873
157.794500,1875
157.795000,1869
157.795500,1832
157.796000,1823
157.796500,1830
157.797000,1813
157.797500,1807
157.798000,1819
157.798500,1817
157.799000,1782
157.799500,1719
157.800000,1670
157.800500,1630
157.801000,1579
157.801500,1577
157.802000,1597
157.802500,1656
157.803000,1783
157.803500,1875
157.804000,1905
157.804500,1888
157.805000,1856
157.805500,1839
157.806000,1850
157.806500,1854
157.807000,1866
157.807500,1852
157.808000,1820
157.808500,1812
157.809000,1836
157.809500,1854
157.810000,1812
157.810500,1793
157.811000,1777
157.811500,1764
157.812000,1749
157.812500,1752
157.813000,1785
157.813500,1847
157.814000,1917
157.814500,1960
157.815000,1959
157.815500,1928
157.816000,1908
157.816500,1900
157.817000,1866
157.817500,1841
157.818000,1841
157.818500,1823
157.819000,1810
157.819500,1819
157.820000,1821
157.820500,1779
157.821000,1741
157.821500,1750
157.822000,1764
157.822500,1752
157.823000,1751
157.823500,1764
157.824000,1757
157.824500,1757
157.825000,1771
157.825500,1791
157.826000,1782
157.826500,1772
157.827000,1757
157.827500,1704
157.828000,1676
157.828500,1675
157.829000,1671
157.829500,1657
157.830000,1670
157.830500,1726
157.831000,1797
157.831500,1867
157.832000,1967
157.832500,1994
157.833000,1960
157.833500,1901
157.834000,1869
157.834500,1860
157.835000,1838
157.835500,1808
157.836000,1767
157.836500,1726
157.837000,1711
157.837500,1730
157.838000,1739
157.838500,1773
157.839000,1860
157.839500,1894
157.840000,1845
157.840500,1778
157.841000,1764
157.841500,1772
157.842000,1799
157.842500,1850
157.843000,1886
157.843500,1905
157.844000,1854
157.844500,1775
157.845000,1725
157.845500,1686
157.846000,1693
157.846500,1735
157.847000,1786
157.847500,1815
157.848000,1848
157.848500,1886
157.849000,1869
157.849500,1842
157.850000,1830
157.850500,1832
157.851000,1815
157.851500,1813
157.852000,1828
157.852500,1826
157.853000,1786
157.853500,1780
157.854000,1795
157.854500,1798
157.855000,1789
157.855500,1769
157.856000,1747
157.856500,1702
157.857000,1666
157.857500,1676
157.858000,1706
157.858500,1771
157.859000,1859
157.859500,1893
157.860000,1902
157.860500,1906
157.861000,1885
157.861500,1831
157.862000,1809
157.862500,1826
157.863000,1835
157.863500,1835
157.864000,1852
157.864500,1877
157.865000,1877
157.865500,1837
157.866000,1845
157.866500,1820
157.867000,1797
157.867500,1770
157.868000,1770
157.868500,1772
157.869000,1749
157.869500,1733
157.870000,1752
157.870500,1747
157.871000,1740
157.871500,1755
157.872000,1774
157.872500,1779
157.873000,1788
157.873500,1809
157.874000,1810
157.874500,1790
157.875000,1808
157.875500,1858
157.876000,1881
157.876500,1865
157.877000,1868
157.877500,1874
157.878000,1841
157.878500,1809
157.879000,1813
157.879500,1804
157.880000,1800
157.880500,1804
157.881000,1806
157.881500,1785
157.882000,1777
157.882500,1786
157.883000,1794
157.883500,1778
157.884000,1791
157.884500,1797
157.885000,1787
157.885500,1774
157.886000,1776
157.886500,1769
157.887000,1719
157.887500,1677
157.888000,1669
157.888500,1671
157.889000,1685
157.889500,1709
157.890000,1755
157.890500,1808
157.891000,1831
157.891500,1845
157.892000,1843
157.892500,1809
157.893000,1818
157.893500,1829
157.894000,1849
157.894500,1863
157.895000,1845
157.895500,1829
157.896000,1822
157.896500,1827
157.897000,1831
157.897500,1820
157.898000,1794
157.898500,1758
157.899000,1757
157.899500,1760
157.900000,1769
157.900500,1801
157.901000,1822
157.901500,1865
157.902000,1928
157.902500,1951
157.903000,1913
157.903500,1868
157.904000,1843
157.904500,1826
157.905000,1791
157.905500,1790
157.906000,1750
157.906500,1706
157.907000,1692
157.907500,1733
157.908000,1761
157.908500,1769
157.909000,1773
157.909500,1816
157.910000,1837
157.910500,1838
157.911000,1862
157.911500,1854
157.912000,1817
157.912500,1808
157.913000,1839
157.913500,1817
157.914000,1765
157.914500,1734
157.915000,1713
157.915500,1674
157.916000,1663
157.916500,1711
157.917000,1784
157.917500,1835
157.918000,1894
157.918500,1964
157.919000,1950
157.919500,1892
157.920000,1874
157.920500,1840
157.921000,1788
157.921500,1754
157.922000,1749
157.922500,1741
157.923000,1718
157.923500,1726
157.924000,1757
157.924500,1768
157.925000,1781
157.925500,1821
157.926000,1871
157.926500,1901
157.927000,1903
157.927500,1901
157.928000,1866
157.928500,1826
157.929000,1814
157.929500,1781
157.930000,1756
157.930500,1754
157.931000,1782
157.931500,1782
157.932000,1776
157.932500,1801
157.933000,1772
157.933500,1728
157.934000,1688
157.934500,1654
157.935000,1648
157.935500,1649
157.936000,1676
157.936500,1748
157.937000,1826
157.937500,1900
157.938000,1962
157.938500,1969
157.939000,1944
157.939500,1923
157.940000,1917
157.940500,1881
157.941000,1836
157.941500,1828
157.942000,1807
157.942500,1793
157.943000,1792
157.943500,1803
157.944000,1797
157.944500,1774
157.945000,1774
157.945500,1799
157.946000,1794
157.946500,1788
157.947000,1766
157.947500,1741
157.948000,1707
157.948500,1680
157.949000,1699
157.949500,1730
157.950000,1802
157.950500,1854
157.951000,1891
157.951500,1901
157.952000,1889
157.952500,1885
157.953000,1864
157.953500,1793
157.954000,1760
157.954500,1753
157.955000,1745
157.955500,1731
157.956000,1761
157.956500,1830
157.957000,1892
157.957500,1893
157.958000,1871
157.958500,1825
157.959000,1818
157.959500,1817
157.960000,1809
157.960500,1761
157.961000,1742
157.961500,1750
157.962000,1743
157.962500,1712
157.963000,1723
157.963500,1732
157.964000,1747
157.964500,1762
157.965000,1802
157.965500,1836
157.966000,1812
157.966500,1769
157.967000,1726
157.967500,1691
157.968000,1716
157.968500,1756
157.969000,1824
157.969500,1884
157.970000,1919
157.970500,1925
157.971000,1899
157.971500,1843
157.972000,1827
157.972500,1807
157.973000,1810
157.973500,1836
157.974000,1848
157.974500,1845
157.975000,1831
157.975500,1815
157.976000,1804
157.976500,1765
157.977000,1764
157.977500,1781
157.978000,1794
157.978500,1791
157.979000,1799
157.979500,1807
157.980000,1795
157.980500,1737
157.981000,1698
157.981500,1679
157.982000,1645
157.982500,1641
157.983000,1673
157.983500,1735
157.984000,1796
157.984500,1853
157.985000,1914
157.985500,1917
157.986000,1926
157.986500,1932
157.987000,1916
157.987500,1886
157.988000,1873
157.988500,1867
157.989000,1853
157.989500,1812
157.990000,1768
157.990500,1767
157.991000,1732
157.991500,1710
157.992000,1752
157.992500,1797
157.993000,1813
157.993500,1831
157.994000,1889
157.994500,1895
157.995000,1855
157.995500,1780
157.996000,1703
157.996500,1658
157.997000,1653
157.997500,1689
157.998000,1752
157.998500,1793
157.999000,1812
157.999500,1815
158.000000,1787
158.000500,1775
158.001000,1814
158.001500,1845
158.002000,1834
158.002500,1830
158.003000,1869
158.003500,1871
158.004000,1844
158.004500,1828
158.005000,1819
158.005500,1802
158.006000,1778
158.006500,1772
158.007000,1761
158.007500,1764
158.008000,1836
158.008500,1872
158.009000,1867
158.009500,1861
158.010000,1866
158.010500,1855
158.011000,1823
158.011500,1824
158.012000,1807
158.012500,1790
158.013000,1786
158.013500,1807
158.014000,1826
158.014500,1842
158.015000,1844
158.015500,1834
158.016000,1804
158.016500,1792
158.017000,1785
158.017500,1747
158.018000,1691
158.018500,1668
158.019000,1669
158.019500,1686
158.020000,1716
158.020500,1799
158.021000,1860
158.021500,1896
158.022000,1901
158.022500,1901
158.023000,1883
158.023500,1844
158.024000,1828
158.024500,1828
158.025000,1808
158.025500,1789
158.026000,1794
158.026500,1798
158.027000,1763
158.027500,1733
158.028000,1740
158.028500,1724
158.029000,1693
158.029500,1677
158.030000,1667
158.030500,1647
158.031000,1653
158.031500,1713
158.032000,1780
158.032500,1818
158.033000,1840
158.033500,1900
158.034000,1942
158.034500,1946
158.035000,1939
158.035500,1921
158.036000,1885
158.036500,1840
158.037000,1832
158.037500,1826
158.038000,1795
158.038500,1793
158.039000,1781
158.039500,1754
158.040000,1736
158.040500,1722
158.041000,1707
158.041500,1728
158.042000,1797
158.042500,1883
158.043000,1906
158.043500,1865
158.044000,1850
158.044500,1845
158.045000,1834
158.045500,1849
158.046000,1875
158.046500,1864
158.047000,1835
158.047500,1832
158.048000,1811
158.048500,1780
158.049000,1766
158.049500,1763
158.050000,1758
158.050500,1731
158.051000,1732
158.051500,1753
158.052000,1727
158.052500,1718
158.053000,1742
158.053500,1738
158.054000,1744
158.054500,1778
158.055000,1843
158.055500,1842
158.056000,1809
158.056500,1812
158.057000,1844
158.057500,1834
158.058000,1825
158.058500,1869
158.059000,1894
158.059500,1854
158.060000,1838
158.060500,1836
158.061000,1809
158.061500,1788
158.062000,1784
158.062500,1775
158.063000,1765
158.063500,1787
158.064000,1820
158.064500,1821
158.065000,1824
158.065500,1799
158.066000,1725
158.066500,1646
158.067000,1602
158.067500,1598
158.068000,1607
158.068500,1623
158.069000,1655
158.069500,1733
158.070000,1812
158.070500,1866
158.071000,1900
158.071500,1880
158.072000,1862
158.072500,1919
158.073000,1930
158.073500,1927
158.074000,1937
158.074500,1929
158.075000,1877
158.075500,1810
158.076000,1780
158.076500,1789
158.077000,1803
158.077500,1823
158.078000,1867
158.078500,1884
158.079000,1868
158.079500,1844
158.080000,1845
158.080500,1837
158.081000,1804
158.081500,1818
158.082000,1852
158.082500,1848
158.083000,1836
158.083500,1842
158.084000,1841
158.084500,1822
158.085000,1838
158.085500,1826
158.086000,1793
158.086500,1781
158.087000,1792
158.087500,1783
158.088000,1742
158.088500,1731
158.089000,1756
158.089500,1761
158.090000,1766
158.090500,1799
158.091000,1819
158.091500,1801
158.092000,1785
158.092500,1800
158.093000,1816
158.093500,1804
158.094000,1815
158.094500,1805
158.095000,1773
158.095500,1736
158.096000,1736
158.096500,1740
158.097000,1738
158.097500,1764
158.098000,1746
158.098500,1742
158.099000,1743
158.099500,1763
158.100000,1798
158.100500,1809
158.101000,1833
158.101500,1855
158.102000,1860
158.102500,1863
158.103000,1868
158.103500,1841
158.104000,1775
158.104500,1720
158.105000,1692
158.105500,1661
158.106000,1693
158.106500,1751
158.107000,1809
158.107500,1844
158.108000,1882
158.108500,1958
158.109000,1977
158.109500,1893
158.110000,1855
158.110500,1833
158.111000,1814
158.111500,1819
158.112000,1852
158.112500,1869
158.113000,1851
158.113500,1837
158.114000,1830
158.114500,1809
158.115000,1791
158.115500,1792
158.116000,1794
158.116500,1786
158.117000,1792
158.117500,1804
158.118000,1785
158.118500,1769
158.119000,1758
158.119500,1729
158.120000,1679
158.120500,1648
158.121000,1657
158.121500,1656
158.122000,1689
158.122500,1756
158.123000,1793
158.123500,1808
158.124000,1823
158.124500,1818
158.125000,1815
158.125500,1808
158.126000,1863
158.126500,1910
158.127000,1899
158.127500,1878
158.128000,1870
158.128500,1847
158.129000,1808
158.129500,1782
158.130000,1780
158.130500,1765
158.131000,1758
158.131500,1780
158.132000,1797
158.132500,1790
158.133000,1799
158.133500,1829
158.134000,1839
158.134500,1812
158.135000,1832
158.135500,1865
158.136000,1865
158.136500,1847
158.137000,1848
158.137500,1850
158.138000,1826
158.138500,1820
158.139000,1796
158.139500,1783
158.140000,1769
158.140500,1773
158.141000,1790
158.141500,1792
158.142000,1806
158.142500,1823
158.143000,1816
158.143500,1801
158.144000,1802
158.144500,1797
158.145000,1774
158.145500,1768
158.146000,1775
158.146500,1764
158.147000,1777
158.147500,1775
158.148000,1739
158.148500,1700
158.149000,1685
158.149500,1694
158.150000,1730
158.150500,1763
158.151000,1827
158.151500,1860
158.152000,1886
158.152500,1897
158.153000,1884
158.153500,1860
158.154000,1836
158.154500,1816
158.155000,1815
158.155500,1789
158.156000,1757
158.156500,1753
158.157000,1749
158.157500,1705
158.158000,1679
158.158500,1698
158.159000,1732
158.159500,1730
158.160000,1765
158.160500,1801
158.161000,1884
158.161500,1948
158.162000,1958
158.162500,1945
158.163000,1898
158.163500,1854
158.164000,1830
158.164500,1773
158.165000,1763
158.165500,1776
158.166000,1788
158.166500,1769
158.167000,1784
158.167500,1841
158.168000,1863
158.168500,1858
158.169000,1864
158.169500,1853
158.170000,1808
158.170500,1772
158.171000,1767
158.171500,1768
158.172000,1752
158.172500,1782
158.173000,1834
158.173500,1844
158.174000,1814
158.174500,1786
158.175000,1751
158.175500,1725
158.176000,1712
158.176500,1729
158.177000,1744
158.177500,1775
158.178000,1824
158.178500,1843
158.179000,1822
158.179500,1800
158.180000,1812
158.180500,1786
158.181000,1787
158.181500,1803
158.182000,1818
158.182500,1813
158.183000,1808
158.183500,1816
158.184000,1812
158.184500,1793
158.185000,1805
158.185500,1770
158.186000,1743
158.186500,1735
158.187000,1759
158.187500,1763
158.188000,1747
158.188500,1745
158.189000,1780
158.189500,1811
158.190000,1852
158.190500,1882
158.191000,1871
158.191500,1858
158.192000,1839
158.192500,1828
158.193000,1805
158.193500,1756
158.194000,1746
158.194500,1751
158.195000,1751
158.195500,1764
158.196000,1794
158.196500,1824
158.197000,1843
158.197500,1881
158.198000,1916
158.198500,1881
158.199000,1842
158.199500,1847
158.200000,1847
158.200500,1815
158.201000,1800
158.201500,1814
158.202000,1835
158.202500,1826
158.203000,1838
158.203500,1811
158.204000,1785
158.204500,1778
158.205000,1794
158.205500,1792
158.206000,1771
158.206500,1764
158.207000,1775
158.207500,1772
158.208000,1775
158.208500,1820
158.209000,1846
158.209500,1824
158.210000,1783
158.210500,1771
158.211000,1765
158.211500,1740
158.212000,1736
158.212500,1744
158.213000,1748
158.213500,1782
158.214000,1817
158.214500,1827
158.215000,1801
158.215500,1802
158.216000,1844
158.216500,1872
158.217000,1876
158.217500,1876
158.218000,1850
158.218500,1799
158.219000,1768
158.219500,1770
158.220000,1774
158.220500,1744
158.221000,1746
158.221500,1748
158.222000,1730
158.222500,1714
158.223000,1686
158.223500,1649
158.224000,1628
158.224500,1674
158.225000,1781
158.225500,1817
158.226000,1818
158.226500,1870
158.227000,1925
158.227500,1927
158.228000,1924
158.228500,1922
158.229000,1870
158.229500,1845
158.230000,1853
158.230500,1853
158.231000,1840
158.231500,1835
158.232000,1849
158.232500,1849
158.233000,1824
158.233500,1828
158.234000,1813
158.234500,1795
158.235000,1774
158.235500,1775
158.236000,1772
158.236500,1760
158.237000,1779
158.237500,1802
158.238000,1787
158.238500,1798
158.239000,1816
158.239500,1812
158.240000,1803
158.240500,1775
158.241000,1770
158.241500,1776
158.242000,1762
158.242500,1783
158.243000,1783
158.243500,1787
158.244000,1802
158.244500,1824
158.245000,1826
158.245500,1814
158.246000,1812
158.246500,1810
158.247000,1786
158.247500,1775
158.248000,1759
158.248500,1732
158.249000,1697
158.249500,1699
158.250000,1770
158.250500,1848
158.251000,1874
158.251500,1889
158.252000,1894
158.252500,1883
158.253000,1875
158.253500,1886
158.254000,1875
158.254500,1827
158.255000,1786
158.255500,1772
158.256000,1733
158.256500,1712
158.257000,1731
158.257500,1756
158.258000,1788
158.258500,1785
158.259000,1778
158.259500,1754
158.260000,1685
158.260500,1664
158.261000,1695
158.261500,1689
158.262000,1708
158.262500,1753
158.263000,1785
158.263500,1823
158.264000,1882
158.264500,1949
158.265000,1975
158.265500,1948
158.266000,1893
158.266500,1852
158.267000,1832
158.267500,1824
158.268000,1834
158.268500,1807
158.269000,1815
158.269500,1855
158.270000,1882
158.270500,1871
158.271000,1852
158.271500,1843
158.272000,1828
158.272500,1807
158.273000,1805
158.273500,1811
158.274000,1787
158.274500,1765
158.275000,1773
158.275500,1778
158.276000,1773
158.276500,1766
158.277000,1786
158.277500,1798
158.278000,1825
158.278500,1831
158.279000,1829
158.279500,1813
158.280000,1800
158.280500,1788
158.281000,1771
158.281500,1744
158.282000,1750
158.282500,1744
158.283000,1746
158.283500,1749
158.284000,1775
158.284500,1801
158.285000,1794
158.285500,1773
158.286000,1746
158.286500,1708
158.287000,1711
158.287500,1746
158.288000,1794
158.288500,1811
158.289000,1816
158.289500,1838
158.290000,1868
158.290500,1855
158.291000,1872
158.291500,1848
158.292000,1825
158.292500,1798
158.293000,1773
158.293500,1729
158.294000,1660
158.294500,1621
158.295000,1636
158.295500,1687
158.296000,1785
158.296500,1856
158.297000,1851
158.297500,1808
158.298000,1757
158.298500,1733
158.299000,1751
158.299500,1788
158.300000,1860
158.300500,1926
158.301000,1939
158.301500,1904
158.302000,1884
158.302500,1835
158.303000,1773
158.303500,1768
158.304000,1792
158.304500,1766
158.305000,1744
158.305500,1761
158.306000,1812
158.306500,1828
158.307000,1826
158.307500,1871
158.308000,1927
158.308500,1932
158.309000,1930
158.309500,1880
158.310000,1822
158.310500,1799
158.311000,1799
158.311500,1778
158.312000,1725
158.312500,1705
158.313000,1727
158.313500,1721
158.314000,1706
158.314500,1727
158.315000,1773
158.315500,1774
158.316000,1775
158.316500,1780
158.317000,1760
158.317500,1781
158.318000,1817
158.318500,1832
158.319000,1796
158.319500,1762
158.320000,1760
158.320500,1742
158.321000,1712
158.321500,1748
158.322000,1769
158.322500,1797
158.323000,1821
158.323500,1898
158.324000,1957
158.324500,1983
158.325000,1973
158.325500,1948
158.326000,1881
158.326500,1823
158.327000,1819
158.327500,1839
158.328000,1844
158.328500,1844
158.329000,1844
158.329500,1792
158.330000,1720
158.330500,1718
158.331000,1690
158.331500,1680
158.332000,1713
158.332500,1778
158.333000,1790
158.333500,1781
158.334000,1781
158.334500,1775
158.335000,1768
158.335500,1794
158.336000,1837
158.336500,1888
158.337000,1917
158.337500,1912
158.338000,1848
158.338500,1725
158.339000,1614
158.339500,1556
158.340000,1533
158.340500,1515
158.341000,1556
158.341500,1609
158.342000,1709
158.342500,1804
158.343000,1853
158.343500,1897
158.344000,1961
158.344500,2048
158.345000,2080
158.345500,2086
158.346000,2068
158.346500,2018
158.347000,1978
158.347500,1934
158.348000,1899
158.348500,1854
158.349000,1828
158.349500,1792
158.350000,1775
158.350500,1782
158.351000,1786
158.351500,1732
158.352000,1634
158.352500,1614
158.353000,1605
158.353500,1573
158.354000,1585
158.354500,1589
158.355000,1618
158.355500,1702
158.356000,1810
158.356500,1835
158.357000,1894
158.357500,1988
158.358000,2042
158.358500,2050
158.359000,2016
158.359500,1959
158.360000,1857
158.360500,1759
158.361000,1738
158.361500,1778
158.362000,1802
158.362500,1831
158.363000,1853
158.363500,1866
158.364000,1863
158.364500,1851
158.365000,1833
158.365500,1791
158.366000,1779
158.366500,1804
158.367000,1811
158.367500,1781
158.368000,1714
158.368500,1685
158.369000,1642
158.369500,1549
158.370000,1508
158.370500,1509
158.371000,1529
158.371500,1607
158.372000,1740
158.372500,1869
158.373000,1976
158.373500,2030
158.374000,2059
158.374500,2074
158.375000,2102
158.375500,2082
158.376000,1992
158.376500,1899
158.377000,1847
158.377500,1824
158.378000,1785
158.378500,1761
158.379000,1797
158.379500,1807
158.380000,1796
158.380500,1772
158.381000,1787
158.381500,1789
158.382000,1745
158.382500,1729
158.383000,1765
158.383500,1781
158.384000,1790
158.384500,1808
158.385000,1815
158.385500,1788
158.386000,1781
158.386500,1786
158.387000,1765
158.387500,1717
158.388000,1714
158.388500,1723
158.389000,1710
158.389500,1736
158.390000,1778
158.390500,1785
158.391000,1763
158.391500,1740
158.392000,1782
158.392500,1824
158.393000,1841
158.393500,1805
158.394000,1703
158.394500,1595
158.395000,1581
158.395500,1600
158.396000,1629
158.396500,1677
158.397000,1799
158.397500,1984
158.398000,2108
158.398500,2132
158.399000,2092
158.399500,2017
158.400000,1921
158.400500,1807
158.401000,1737
158.401500,1700
158.402000,1699
158.402500,1733
158.403000,1742
158.403500,1763
158.404000,1822
158.404500,1912
158.405000,1966
158.405500,1964
158.406000,1972
158.406500,1942
158.407000,1873
158.407500,1829
158.408000,1817
158.408500,1790
158.409000,1743
158.409500,1725
158.410000,1744
158.410500,1742
158.411000,1744
158.411500,1780
158.412000,1803
158.412500,1796
158.413000,1788
158.413500,1776
158.414000,1733
158.414500,1742
158.415000,1781
158.415500,1809
158.416000,1824
158.416500,1856
158.417000,1878
158.417500,1865
158.418000,1840
158.418500,1839
158.419000,1812
158.419500,1793
158.420000,1799
158.420500,1811
158.421000,1803
158.421500,1773
158.422000,1746
158.422500,1749
158.423000,1750
158.423500,1757
158.424000,1778
158.424500,1796
158.425000,1798
158.425500,1790
158.426000,1801
158.426500,1796
158.427000,1787
158.427500,1783
158.428000,1801
158.428500,1795
158.429000,1778
158.429500,1779
158.430000,1813
158.430500,1823
158.431000,1774
158.431500,1675
158.432000,1555
158.432500,1527
158.433000,1588
158.433500,1668
158.434000,1752
158.434500,1892
158.435000,2037
158.435500,2058
158.436000,2024
158.436500,1980
158.437000,1914
158.437500,1828
158.438000,1782
158.438500,1805
158.439000,1830
158.439500,1839
158.440000,1865
158.440500,1889
158.441000,1878
158.441500,1853
158.442000,1844
158.442500,1831
158.443000,1798
158.443500,1787
158.444000,1792
158.444500,1773
158.445000,1731
158.445500,1711
158.446000,1698
158.446500,1676
158.447000,1683
158.447500,1708
158.448000,1710
158.448500,1730
158.449000,1771
158.449500,1806
158.450000,1811
158.450500,1795
158.451000,1809
158.451500,1823
158.452000,1819
158.452500,1827
158.453000,1807
158.453500,1798
158.454000,1806
158.454500,1836
158.455000,1854
158.455500,1800
158.456000,1769
158.456500,1788
158.457000,1779
158.457500,1772
158.458000,1788
158.458500,1820
158.459000,1847
158.459500,1860
158.460000,1874
158.460500,1855
158.461000,1853
158.461500,1841
158.462000,1830
158.462500,1810
158.463000,1810
158.463500,1822
158.464000,1820
158.464500,1802
158.465000,1789
158.465500,1787
158.466000,1770
158.466500,1762
158.467000,1775
158.467500,1775
158.468000,1757
158.468500,1749
158.469000,1768
158.469500,1778
158.470000,1794
158.470500,1768
158.471000,1692
158.471500,1619
158.472000,1602
158.472500,1621
158.473000,1654
158.473500,1718
158.474000,1843
158.474500,1935
158.475000,1967
158.475500,1980
158.476000,1989
158.476500,1960
158.477000,1911
158.477500,1873
158.478000,1874
158.478500,1861
158.479000,1855
158.479500,1837
158.480000,1803
158.480500,1756
158.481000,1735
158.481500,1753
158.482000,1756
158.482500,1756
158.483000,1773
158.483500,1775
158.484000,1761
158.484500,1765
158.485000,1791
158.485500,1788
158.486000,1749
158.486500,1753
158.487000,1766
158.487500,1783
158.488000,1802
158.488500,1815
158.489000,1834
158.489500,1821
158.490000,1767
158.490500,1748
158.491000,1727
158.491500,1743
158.492000,1801
158.492500,1801
158.493000,1798
158.493500,1823
158.494000,1832
158.494500,1795
158.495000,1750
158.495500,1674
158.496000,1628
158.496500,1574
158.497000,1541
158.497500,1549
158.498000,1555
158.498500,1661
158.499000,1830
158.499500,1932
158.500000,1998
158.500500,2090
158.501000,2179
158.501500,2161
158.502000,2081
158.502500,2020
158.503000,1976
158.503500,1929
158.504000,1872
158.504500,1860
158.505000,1849
158.505500,1818
158.506000,1802
158.506500,1801
158.507000,1799
158.507500,1779
158.508000,1774
158.508500,1785
158.509000,1774
158.509500,1780
158.510000,1803
158.510500,1808
158.511000,1795
158.511500,1784
158.512000,1779
158.512500,1728
158.513000,1694
158.513500,1684
158.514000,1707
158.514500,1736
158.515000,1786
158.515500,1875
158.516000,1917
158.516500,1895
158.517000,1854
158.517500,1841
158.518000,1812
158.518500,1800
158.519000,1811
158.519500,1814
158.520000,1768
158.520500,1720
158.521000,1718
158.521500,1704
158.522000,1701
158.522500,1733
158.523000,1795
158.523500,1817
158.524000,1816
158.524500,1838
158.525000,1867
158.525500,1848
158.526000,1836
158.526500,1788
158.527000,1755
158.527500,1741
158.528000,1743
158.528500,1746
158.529000,1750
158.529500,1773
158.530000,1806
158.530500,1802
158.531000,1816
158.531500,1853
158.532000,1874
158.532500,1864
158.533000,1863
158.533500,1878
158.534000,1879
158.534500,1850
158.535000,1831
158.535500,1817
158.536000,1797
158.536500,1789
158.537000,1798
158.537500,1806
158.538000,1791
158.538500,1780
158.539000,1790
158.539500,1781
158.540000,1773
158.540500,1787
158.541000,1775
158.541500,1728
158.542000,1705
158.542500,1718
158.543000,1749
158.543500,1760
158.544000,1811
158.544500,1844
158.545000,1832
158.545500,1814
158.546000,1797
158.546500,1775
158.547000,1742
158.547500,1760
158.548000,1768
158.548500,1780
158.549000,1807
158.549500,1848
158.550000,1841
158.550500,1815
158.551000,1802
158.551500,1814
158.552000,1822
158.552500,1808
158.553000,1755
158.553500,1679
158.554000,1640
158.554500,1641
158.555000,1668
158.555500,1691
158.556000,1721
158.556500,1839
158.557000,1966
158.557500,2008
158.558000,1997
158.558500,1974
158.559000,1910
158.559500,1839
158.560000,1844
158.560500,1828
158.561000,1808
158.561500,1769
158.562000,1726
158.562500,1691
158.563000,1674
158.563500,1684
158.564000,1690
158.564500,1675
158.565000,1728
158.565500,1836
158.566000,1881
158.566500,1871
158.567000,1872
158.567500,1889
158.568000,1875
158.568500,1834
158.569000,1840
158.569500,1832
158.570000,1837
158.570500,1820
158.571000,1817
158.571500,1816
158.572000,1811
158.572500,1820
158.573000,1830
158.573500,1803
158.574000,1789
158.574500,1794
158.575000,1787
158.575500,1783
158.576000,1813
158.576500,1859
158.577000,1869
158.577500,1820
158.578000,1796
158.578500,1768
158.579000,1733
158.579500,1719
158.580000,1774
158.580500,1813
158.581000,1798
158.581500,1776
158.582000,1767
158.582500,1741
158.583000,1735
158.583500,1771
158.584000,1818
158.584500,1842
158.585000,1853
158.585500,1859
158.586000,1861
158.586500,1837
158.587000,1846
158.587500,1881
158.588000,1888
158.588500,1861
158.589000,1828
158.589500,1788
158.590000,1725
158.590500,1713
158.591000,1692
158.591500,1687
158.592000,1719
158.592500,1774
158.593000,1809
158.593500,1836
158.594000,1879
158.594500,1912
158.595000,1885
158.595500,1863
158.596000,1866
158.596500,1857
158.597000,1840
158.597500,1826
158.598000,1816
158.598500,1791
158.599000,1741
158.599500,1741
158.600000,1740
158.600500,1732
158.601000,1745
158.601500,1783
158.602000,1829
158.602500,1846
158.603000,1877
158.603500,1852
158.604000,1805
158.604500,1754
158.605000,1748
158.605500,1718
158.606000,1660
158.606500,1625
158.607000,1648
158.607500,1665
158.608000,1704
158.608500,1774
158.609000,1858
158.609500,1939
158.610000,1926
158.610500,1844
158.611000,1750
158.611500,1676
158.612000,1671
158.612500,1719
158.613000,1778
158.613500,1878
158.614000,1963
158.614500,1982
158.615000,1942
158.615500,1877
158.616000,1850
158.616500,1830
158.617000,1849
158.617500,1878
158.618000,1879
158.618500,1858
158.619000,1843
158.619500,1836
158.620000,1829
158.620500,1789
158.621000,1790
158.621500,1770
158.622000,1747
158.622500,1753
158.623000,1790
158.623500,1816
158.624000,1812
158.624500,1836
158.625000,1872
158.625500,1838
158.626000,1798
158.626500,1771
158.627000,1696
158.627500,1622
158.628000,1610
158.628500,1657
158.629000,1701
158.629500,1703
158.630000,1733
158.630500,1768
158.631000,1803
158.631500,1839
158.632000,1878
158.632500,1888
158.633000,1868
158.633500,1870
158.634000,1899
158.634500,1888
158.635000,1854
158.635500,1838
158.636000,1838
158.636500,1820
158.637000,1805
158.637500,1824
158.638000,1804
158.638500,1808
158.639000,1826
158.639500,1845
158.640000,1840
158.640500,1841
158.641000,1859
158.641500,1845
158.642000,1773
158.642500,1758
158.643000,1731
158.643500,1712
158.644000,1721
158.644500,1770
158.645000,1804
158.645500,1807
158.646000,1801
158.646500,1808
158.647000,1784
158.647500,1770
158.648000,1782
158.648500,1809
158.649000,1823
158.649500,1834
158.650000,1849
158.650500,1856
158.651000,1835
158.651500,1813
158.652000,1752
158.652500,1711
158.653000,1711
158.653500,1749
158.654000,1770
158.654500,1762
158.655000,1795
158.655500,1779
158.656000,1701
158.656500,1672
158.657000,1711
158.657500,1730
158.658000,1748
158.658500,1795
158.659000,1880
158.659500,1960
158.660000,1973
158.660500,1941
158.661000,1900
158.661500,1837
158.662000,1787
158.662500,1778
158.663000,1779
158.663500,1780
158.664000,1790
158.664500,1825
158.665000,1828
158.665500,1820
158.666000,1786
158.666500,1714
158.667000,1664
158.667500,1637
158.668000,1655
158.668500,1679
158.669000,1678
158.669500,1749
158.670000,1833
158.670500,1894
158.671000,1906
158.671500,1909
158.672000,1908
158.672500,1892
158.673000,1882
158.673500,1853
158.674000,1790
158.674500,1746
158.675000,1701
158.675500,1645
158.676000,1623
158.676500,1707
158.677000,1840
158.677500,1881
158.678000,1854
158.678500,1895
158.679000,1927
158.679500,1916
158.680000,1934
158.680500,1977
158.681000,1955
158.681500,1883
158.682000,1878
158.682500,1861
158.683000,1824
158.683500,1800
158.684000,1800
158.684500,1793
158.685000,1772
158.685500,1743
158.686000,1726
158.686500,1686
158.687000,1667
158.687500,1670
158.688000,1709
158.688500,1736
158.689000,1779
158.689500,1824
158.690000,1820
158.690500,1760
158.691000,1721
158.691500,1736
158.692000,1752
158.692500,1803
158.693000,1874
158.693500,1924
158.694000,1947
158.694500,1930
158.695000,1909
158.695500,1838
158.696000,1795
158.696500,1785
158.697000,1802
158.697500,1828
158.698000,1842
158.698500,1869
158.699000,1861
158.699500,1837
158.700000,1818
158.700500,1826
158.701000,1802
158.701500,1777
158.702000,1771
158.702500,1761
158.703000,1746
158.703500,1749
158.704000,1773
158.704500,1774
158.705000,1752
158.705500,1770
158.706000,1782
158.706500,1773
158.707000,1774
158.707500,1819
158.708000,1847
158.708500,1804
158.709000,1780
158.709500,1794
158.710000,1775
158.710500,1737
158.711000,1723
158.711500,1712
158.712000,1700
158.712500,1702
158.713000,1716
158.713500,1738
158.714000,1763
158.714500,1800
158.715000,1834
158.715500,1877
158.716000,1931
158.716500,1978
158.717000,1986
158.717500,1946
158.718000,1895
158.718500,1863
158.719000,1823
158.719500,1796
158.720000,1796
158.720500,1793
158.721000,1779
158.721500,1780
158.722000,1796
158.722500,1798
158.723000,1766
158.723500,1782
158.724000,1793
158.724500,1785
158.725000,1774
158.725500,1778
158.726000,1788
158.726500,1751
158.727000,1704
158.727500,1711
158.728000,1712
158.728500,1716
158.729000,1755
158.729500,1807
158.730000,1844
158.730500,1900
158.731000,1941
158.731500,1900
158.732000,1824
158.732500,1801
158.733000,1783
158.733500,1756
158.734000,1768
158.734500,1804
158.735000,1832
158.735500,1825
158.736000,1849
158.736500,1851
158.737000,1840
158.737500,1827
158.738000,1831
158.738500,1834
158.739000,1805
158.739500,1763
158.740000,1744
158.740500,1679
158.741000,1615
158.741500,1627
158.742000,1663
158.742500,1711
158.743000,1780
158.743500,1854
158.744000,1899
158.744500,1900
158.745000,1903
158.745500,1897
158.746000,1858
158.746500,1809
158.747000,1782
158.747500,1777
158.748000,1754
158.748500,1711
158.749000,1706
158.749500,1706
158.750000,1741
158.750500,1798
158.751000,1845
158.751500,1882
158.752000,1928
158.752500,1974
158.753000,1948
158.753500,1875
158.754000,1816
158.754500,1740
158.755000,1684
158.755500,1667
158.756000,1692
158.756500,1743
158.757000,1768
158.757500,1799
158.758000,1824
158.758500,1842
158.759000,1848
158.759500,1865
158.760000,1897
158.760500,1890
158.761000,1878
158.761500,1861
158.762000,1819
158.762500,1808
158.763000,1826
158.763500,1834
158.764000,1812
158.764500,1791
158.765000,1777
158.765500,1750
158.766000,1715
158.766500,1647
158.767000,1580
158.767500,1524
158.768000,1518
158.768500,1595
158.769000,1659
158.769500,1717
158.770000,1823
158.770500,1918
158.771000,1976
158.771500,1994
158.772000,1961
158.772500,1882
158.773000,1799
158.773500,1727
158.774000,1689
158.774500,1707
158.775000,1768
158.775500,1909
158.776000,2020
158.776500,2049
158.777000,2000
158.777500,1953
158.778000,1899
158.778500,1832
158.779000,1812
158.779500,1843
158.780000,1840
158.780500,1810
158.781000,1828
158.781500,1852
158.782000,1848
158.782500,1834
158.783000,1816
158.783500,1779
158.784000,1737
158.784500,1753
158.785000,1769
158.785500,1760
158.786000,1769
158.786500,1796
158.787000,1814
158.787500,1813
158.788000,1827
158.788500,1805
158.789000,1763
158.789500,1735
158.790000,1734
158.790500,1736
158.791000,1737
158.791500,1748
158.792000,1765
158.792500,1748
158.793000,1727
158.793500,1722
158.794000,1735
158.794500,1739
158.795000,1760
158.795500,1805
158.796000,1865
158.796500,1892
158.797000,1911
158.797500,1897
158.798000,1846
158.798500,1807
158.799000,1799
158.799500,1777
158.800000,1727
158.800500,1655
158.801000,1630
158.801500,1627
158.802000,1630
158.802500,1665
158.803000,1742
158.803500,1817
158.804000,1892
158.804500,1934
158.805000,1909
158.805500,1875
158.806000,1887
158.806500,1900
158.807000,1927
158.807500,1952
158.808000,1965
158.808500,1922
158.809000,1842
158.809500,1804
158.810000,1810
158.810500,1781
158.811000,1756
158.811500,1780
158.812000,1808
158.812500,1809
158.813000,1796
158.813500,1781
158.814000,1746
158.814500,1714
158.815000,1737
158.815500,1750
158.816000,1725
158.816500,1721
158.817000,1789
158.817500,1831
158.818000,1834
158.818500,1852
158.819000,1848
158.819500,1841
158.820000,1832
158.820500,1833
158.821000,1824
158.821500,1795
158.822000,1764
158.822500,1793
158.823000,1817
158.823500,1836
158.824000,1877
158.824500,1894
158.825000,1867
158.825500,1859
158.826000,1866
158.826500,1861
158.827000,1832
158.827500,1829
158.828000,1814
158.828500,1782
158.829000,1748
158.829500,1751
158.830000,1734
158.830500,1695
158.831000,1670
158.831500,1685
158.832000,1697
158.832500,1732
158.833000,1774
158.833500,1822
158.834000,1830
158.834500,1804
158.835000,1785
158.835500,1751
158.836000,1768
158.836500,1799
158.837000,1815
158.837500,1818
158.838000,1867
158.838500,1946
158.839000,1937
158.839500,1875
158.840000,1875
158.840500,1852
158.841000,1821
158.841500,1791
158.842000,1792
158.842500,1799
158.843000,1788
158.843500,1778
158.844000,1777
158.844500,1762
158.845000,1763
158.845500,1791
158.846000,1820
158.846500,1820
158.847000,1816
158.847500,1832
158.848000,1824
158.848500,1790
158.849000,1775
158.849500,1722
158.850000,1675
158.850500,1658
158.851000,1655
158.851500,1654
158.852000,1648
158.852500,1609
158.853000,1544
158.853500,1515
158.854000,1558
158.854500,1652
158.855000,1757
158.855500,1856
158.856000,1993
158.856500,2110
158.857000,2130
158.857500,2085
158.858000,2056
158.858500,2008
158.859000,1935
158.859500,1882
158.860000,1873
158.860500,1861
158.861000,1828
158.861500,1813
158.862000,1831
158.862500,1815
158.863000,1798
158.863500,1790
158.864000,1783
158.864500,1764
158.865000,1762
158.865500,1778
158.866000,1775
158.866500,1773
158.867000,1791
158.867500,1810
158.868000,1808
158.868500,1799
158.869000,1809
158.869500,1806
158.870000,1769
158.870500,1766
158.871000,1777
158.871500,1729
158.872000,1681
158.872500,1655
158.873000,1681
158.873500,1715
158.874000,1747
158.874500,1817
158.875000,1874
158.875500,1926
158.876000,1958
158.876500,1947
158.877000,1917
158.877500,1894
158.878000,1859
158.878500,1828
158.879000,1783
158.879500,1765
158.880000,1785
158.880500,1783
158.881000,1778
158.881500,1788
158.882000,1801
158.882500,1782
158.883000,1756
158.883500,1766
158.884000,1750
158.884500,1748
158.885000,1762
158.885500,1795
158.886000,1828
158.886500,1857
158.887000,1881
158.887500,1868
158.888000,1820
158.888500,1813
158.889000,1797
158.889500,1750
158.890000,1728
158.890500,1718
158.891000,1711
158.891500,1698
158.892000,1727
158.892500,1778
158.893000,1809
158.893500,1824
158.894000,1860
158.894500,1857
158.895000,1820
158.895500,1801
158.896000,1821
158.896500,1837
158.897000,1820
158.897500,1818
158.898000,1830
158.898500,1829
158.899000,1835
158.899500,1835
158.900000,1812
158.900500,1776
158.901000,1766
158.901500,1789
158.902000,1752
158.902500,1720
158.903000,1697
158.903500,1679
158.904000,1675
158.904500,1716
158.905000,1790
158.905500,1830
158.906000,1890
158.906500,1953
158.907000,1965
158.907500,1918
158.908000,1857
158.908500,1824
158.909000,1800
158.909500,1765
158.910000,1748
158.910500,1760
158.911000,1771
158.911500,1774
158.912000,1798
158.912500,1827
158.913000,1841
158.913500,1862
158.914000,1891
158.914500,1872
158.915000,1849
158.915500,1839
158.916000,1830
158.916500,1801
158.917000,1792
158.917500,1809
158.918000,1814
158.918500,1798
158.919000,1808
158.919500,1813
158.920000,1802
158.920500,1796
158.921000,1806
158.921500,1804
158.922000,1780
158.922500,1802
158.923000,1792
158.923500,1789
158.924000,1778
158.924500,1781
158.925000,1788
158.925500,1776
158.926000,1780
158.926500,1789
158.927000,1777
158.927500,1773
158.928000,1793
158.928500,1810
158.929000,1804
158.929500,1794
158.930000,1805
158.930500,1805
158.931000,1791
158.931500,1792
158.932000,1808
158.932500,1802
158.933000,1796
158.933500,1801
158.934000,1805
158.934500,1790
158.935000,1788
158.935500,1809
158.936000,1804
158.936500,1791
158.937000,1804
158.937500,1809
158.938000,1796
158.938500,1792
158.939000,1807
158.939500,1812
158.940000,1793
158.940500,1806
158.941000,1810
158.941500,1795
158.942000,1790
158.942500,1804
158.943000,1804
158.943500,1790
158.944000,1784
158.944500,1800
158.945000,1790
158.945500,1795
158.946000,1805
158.946500,1804
158.947000,1788
158.947500,1784
158.948000,1801
158.948500,1808
158.949000,1792
158.949500,1807
158.950000,1811
158.950500,1799
158.951000,1792
158.951500,1801
158.952000,1805
158.952500,1791
158.953000,1785
158.953500,1801
158.954000,1788
158.954500,1781
158.955000,1796
158.955500,1804
158.956000,1793
158.956500,1785
158.957000,1804
158.957500,1789
158.958000,1790
158.958500,1801
158.959000,1814
158.959500,1811
158.960000,1822
158.960500,1829
158.961000,1830
158.961500,1805
158.962000,1813
158.962500,1808
158.963000,1798
158.963500,1788
158.964000,1798
158.964500,1804
158.965000,1787
158.965500,1785
158.966000,1803
158.966500,1797
158.967000,1779
158.967500,1788
158.968000,1793
158.968500,1786
158.969000,1782
158.969500,1800
158.970000,1802
158.970500,1790
158.971000,1806
158.971500,1805
158.972000,1801
158.972500,1799
158.973000,1813
158.973500,1815
158.974000,1803
158.974500,1815
158.975000,1813
158.975500,1803
158.976000,1798
158.976500,1808
158.977000,1812
158.977500,1801
158.978000,1797
158.978500,1810
158.979000,1801
158.979500,1794
158.980000,1810
158.980500,1790
158.981000,1770
158.981500,1762
158.982000,1777
158.982500,1783
158.983000,1784
158.983500,1804
158.984000,1828
158.984500,1828
158.985000,1825
158.985500,1825
158.986000,1820
158.986500,1798
158.987000,1786
158.987500,1794
158.988000,1783
158.988500,1772
158.989000,1784
158.989500,1788
158.990000,1768
158.990500,1765
158.991000,1790
158.991500,1801
158.992000,1792
158.992500,1815
158.993000,1838
158.993500,1832
158.994000,1826
158.994500,1832
158.995000,1834
158.995500,1817
158.996000,1807
158.996500,1821
158.997000,1810
158.997500,1802
158.998000,1807
158.998500,1801
158.999000,1785
158.999500,1778
159.000000,1799
159.000500,1798
159.001000,1785
159.001500,1807
159.002000,1812
159.002500,1795
159.003000,1783
159.003500,1789
159.004000,1788
159.004500,1755
159.005000,1740
159.005500,1766
159.006000,1769
159.006500,1769
159.007000,1789
159.007500,1814
159.008000,1818
159.008500,1819
159.009000,1836
159.009500,1818
159.010000,1816
159.010500,1820
159.011000,1822
159.011500,1808
159.012000,1808
159.012500,1819
159.013000,1824
159.013500,1809
159.014000,1812
159.014500,1823
159.015000,1815
159.015500,1808
159.016000,1820
159.016500,1820
159.017000,1803
159.017500,1799
159.018000,1818
159.018500,1811
159.019000,1803
159.019500,1807
159.020000,1810
159.020500,1796
159.021000,1788
159.021500,1804
159.022000,1806
159.022500,1787
159.023000,1792
159.023500,1801
159.024000,1794
159.024500,1786
159.025000,1799
159.025500,1802
159.026000,1784
159.026500,1774
159.027000,1789
159.027500,1787
159.028000,1782
159.028500,1794
159.029000,1802
159.029500,1796
159.030000,1800
159.030500,1814
159.031000,1813
159.031500,1791
159.032000,1799
159.032500,1814
159.033000,1805
159.033500,1798
159.034000,1814
159.034500,1814
159.035000,1805
159.035500,1796
159.036000,1811
159.036500,1801
159.037000,1797
159.037500,1807
159.038000,1812
159.038500,1799
159.039000,1794
159.039500,1807
159.040000,1813
159.040500,1792
159.041000,1797
159.041500,1807
159.042000,1795
159.042500,1788
159.043000,1798
159.043500,1802
159.044000,1786
159.044500,1781
159.045000,1801
159.045500,1794
159.046000,1788
159.046500,1799
159.047000,1805
159.047500,1787
159.048000,1768
159.048500,1781
159.049000,1770
159.049500,1769
159.050000,1785
159.050500,1788
159.051000,1797
159.051500,1812
159.052000,1836
159.052500,1838
159.053000,1823
159.053500,1826
159.054000,1825
159.054500,1807
159.055000,1802
159.055500,1818
159.056000,1821
159.056500,1803
159.057000,1797
159.057500,1815
159.058000,1808
159.058500,1803
159.059000,1813
159.059500,1816
159.060000,1807
159.060500,1796
159.061000,1812
159.061500,1791
159.062000,1793
159.062500,1800
159.063000,1806
159.063500,1793
159.064000,1786
159.064500,1800
159.065000,1803
159.065500,1790
159.066000,1789
159.066500,1805
159.067000,1796
159.067500,1785
159.068000,1797
159.068500,1803
159.069000,1791
159.069500,1786
159.070000,1799
159.070500,1789
159.071000,1791
159.071500,1795
159.072000,1804
159.072500,1793
159.073000,1792
159.073500,1806
159.074000,1817
159.074500,1799
159.075000,1822
159.075500,1814
159.076000,1806
159.076500,1798
159.077000,1811
159.077500,1818
159.078000,1804
159.078500,1797
159.079000,1813
159.079500,1805
159.080000,1798
159.080500,1807
159.081000,1808
159.081500,1794
159.082000,1787
159.082500,1798
159.083000,1799
159.083500,1781
159.084000,1790
159.084500,1803
159.085000,1793
159.085500,1789
159.086000,1801
159.086500,1801
159.087000,1789
159.087500,1786
159.088000,1802
159.088500,1796
159.089000,1787
159.089500,1802
159.090000,1811
159.090500,1794
159.091000,1789
159.091500,1805
159.092000,1788
159.092500,1792
159.093000,1806
159.093500,1815
159.094000,1802
159.094500,1795
159.095000,1816
159.095500,1818
159.096000,1804
159.096500,1799
159.097000,1813
159.097500,1804
159.098000,1798
159.098500,1810
159.099000,1813
159.099500,1798
159.100000,1796
159.100500,1810
159.101000,1798
159.101500,1787
159.102000,1796
159.102500,1802
159.103000,1790
159.103500,1786
159.104000,1804
159.104500,1806
159.105000,1788
159.105500,1796
159.106000,1802
159.106500,1791
159.107000,1789
159.107500,1800
159.108000,1808
159.108500,1792
159.109000,1812
159.109500,1806
159.110000,1803
159.110500,1794
159.111000,1807
159.111500,1810
159.112000,1796
159.112500,1793
159.113000,1806
159.113500,1798
159.114000,1789
159.114500,1796
159.115000,1800
159.115500,1782
159.116000,1777
159.116500,1788
159.117000,1795
159.117500,1785
159.118000,1800
159.118500,1807
159.119000,1795
159.119500,1795
159.120000,1815
159.120500,1825
159.121000,1813
159.121500,1825
159.122000,1817
159.122500,1806
159.123000,1796
159.123500,1808
159.124000,1812
159.124500,1797
159.125000,1793
159.125500,1806
159.126000,1801
159.126500,1793
159.127000,1805
159.127500,1810
159.128000,1797
159.128500,1792
159.129000,1804
159.129500,1782
159.130000,1781
159.130500,1790
159.131000,1792
159.131500,1775
159.132000,1770
159.132500,1787
159.133000,1804
159.133500,1799
159.134000,1816
159.134500,1838
159.135000,1830
159.135500,1821
159.136000,1832
159.136500,1827
159.137000,1806
159.137500,1798
159.138000,1808
159.138500,1799
159.139000,1789
159.139500,1795
159.140000,1801
159.140500,1790
159.141000,1782
159.141500,1794
159.142000,1799
159.142500,1787
159.143000,1804
159.143500,1817
159.144000,1805
159.144500,1796
159.145000,1808
159.145500,1811
159.146000,1790
159.146500,1802
159.147000,1796
159.147500,1781
159.148000,1774
159.148500,1780
159.149000,1780
159.149500,1765
159.150000,1764
159.150500,1777
159.151000,1767
159.151500,1768
159.152000,1786
159.152500,1796
159.153000,1801
159.153500,1810
159.154000,1833
159.154500,1842
159.155000,1834
159.155500,1833
159.156000,1844
159.156500,1827
159.157000,1814
159.157500,1824
159.158000,1828
159.158500,1810
159.159000,1804
159.159500,1814
159.160000,1805
159.160500,1799
159.161000,1806
159.161500,1805
159.162000,1791
159.162500,1787
159.163000,1801
159.163500,1784
159.164000,1781
159.164500,1785
159.165000,1788
159.165500,1779
159.166000,1776
159.166500,1788
159.167000,1799
159.167500,1789
159.168000,1798
159.168500,1821
159.169000,1809
159.169500,1801
159.170000,1810
159.170500,1814
159.171000,1800
159.171500,1793
159.172000,1809
159.172500,1803
159.173000,1794
159.173500,1802
159.174000,1812
159.174500,1797
159.175000,1797
159.175500,1811
159.176000,1817
159.176500,1797
159.177000,1811
159.177500,1811
159.178000,1805
159.178500,1800
159.179000,1811
159.179500,1816
159.180000,1801
159.180500,1793
159.181000,1807
159.181500,1798
159.182000,1788
159.182500,1797
159.183000,1800
159.183500,1788
159.184000,1784
159.184500,1798
159.185000,1801
159.185500,1786
159.186000,1800
159.186500,1800
159.187000,1791
159.187500,1783
159.188000,1799
159.188500,1806
159.189000,1791
159.189500,1785
159.190000,1805
159.190500,1798
159.191000,1793
159.191500,1804
159.192000,1806
159.192500,1794
159.193000,1793
159.193500,1806
159.194000,1792
159.194500,1795
159.195000,1804
159.195500,1814
159.196000,1808
159.196500,1801
159.197000,1816
159.197500,1818
159.198000,1800
159.198500,1820
159.199000,1810
159.199500,1803
159.200000,1801
159.200500,1811
159.201000,1810
159.201500,1796
159.202000,1790
159.202500,1806
159.203000,1800
159.203500,1789
159.204000,1798
159.204500,1801
159.205000,1789
159.205500,1788
159.206000,1805
159.206500,1802
159.207000,1788
159.207500,1788
159.208000,1802
159.208500,1794
159.209000,1790
159.209500,1805
159.210000,1813
159.210500,1796
159.211000,1791
159.211500,1803
159.212000,1794
159.212500,1791
159.213000,1805
159.213500,1809
159.214000,1801
159.214500,1796
159.215000,1815
159.215500,1820
159.216000,1804
159.216500,1812
159.217000,1815
159.217500,1807
159.218000,1799
159.218500,1813
159.219000,1818
159.219500,1800
159.220000,1796
159.220500,1815
159.221000,1804
159.221500,1795
159.222000,1805
159.222500,1803
159.223000,1790
159.223500,1786
159.224000,1801
159.224500,1807
159.225000,1788
159.225500,1802
159.226000,1805
159.226500,1792
159.227000,1788
159.227500,1802
159.228000,1807
159.228500,1794
159.229000,1789
159.229500,1804
159.230000,1802
159.230500,1795
159.231000,1804
159.231500,1804
159.232000,1792
159.232500,1786
159.233000,1807
159.233500,1813
159.234000,1798
159.234500,1798
159.235000,1814
159.235500,1807
159.236000,1801
159.236500,1809
159.237000,1814
159.237500,1800
159.238000,1796
159.238500,1812
159.239000,1812
159.239500,1799
159.240000,1811
159.240500,1817
159.241000,1799
159.241500,1789
159.242000,1801
159.242500,1807
159.243000,1788
159.243500,1799
159.244000,1805
159.244500,1793
159.245000,1788
159.245500,1806
159.246000,1807
159.246500,1792
159.247000,1786
159.247500,1802
159.248000,1791
159.248500,1787
159.249000,1802
159.249500,1807
159.250000,1800
159.250500,1793
159.251000,1809
159.251500,1809
159.252000,1792
159.252500,1805
159.253000,1809
159.253500,1797
159.254000,1794
159.254500,1808
159.255000,1820
159.255500,1802
159.256000,1799
159.256500,1812
159.257000,1803
159.257500,1800
159.258000,1811
159.258500,1813
159.259000,1801
159.259500,1795
159.260000,1811
159.260500,1812
159.261000,1794
159.261500,1802
159.262000,1804
159.262500,1790
159.263000,1787
159.263500,1801
159.264000,1804
159.264500,1787
159.265000,1783
159.265500,1801
159.266000,1796
159.266500,1787
159.267000,1801
159.267500,1807
159.268000,1791
159.268500,1786
159.269000,1800
159.269500,1788
159.270000,1785
159.270500,1800
159.271000,1805
159.271500,1790
159.272000,1785
159.272500,1797
159.273000,1805
159.273500,1791
159.274000,1796
159.274500,1809
159.275000,1799
159.275500,1797
159.276000,1811
159.276500,1815
159.277000,1800
159.277500,1796
159.278000,1813
159.278500,1809
159.279000,1800
159.279500,1809
159.280000,1816
159.280500,1800
159.281000,1794
159.281500,1803
159.282000,1805
159.282500,1786
159.283000,1796
159.283500,1801
159.284000,1790
159.284500,1783
159.285000,1797
159.285500,1803
159.286000,1785
159.286500,1781
159.287000,1801
159.287500,1795
159.288000,1788
159.288500,1800
159.289000,1805
159.289500,1790
159.290000,1790
159.290500,1802
159.291000,1806
159.291500,1786
159.292000,1790
159.292500,1802
159.293000,1796
159.293500,1790
159.294000,1807
159.294500,1811
159.295000,1802
159.295500,1801
159.296000,1815
159.296500,1806
159.297000,1798
159.297500,1807
159.298000,1815
159.298500,1802
159.299000,1798
159.299500,1812
159.300000,1818
159.300500,1799
159.301000,1802
159.301500,1805
159.302000,1791
159.302500,1783
159.303000,1796
159.303500,1803
159.304000,1785
159.304500,1781
159.305000,1797
159.305500,1789
159.306000,1784
159.306500,1798
159.307000,1801
159.307500,1789
159.308000,1788
159.308500,1804
159.309000,1806
159.309500,1789
159.310000,1808
159.310500,1807
159.311000,1800
159.311500,1791
159.312000,1801
159.312500,1804
159.313000,1793
159.313500,1789
159.314000,1806
159.314500,1798
159.315000,1795
159.315500,1811
159.316000,1818
159.316500,1801
159.317000,1795
159.317500,1812
159.318000,1815
159.318500,1799
159.319000,1819
159.319500,1810
159.320000,1801
159.320500,1798
159.321000,1805
159.321500,1808
159.322000,1789
159.322500,1786
159.323000,1800
159.323500,1795
159.324000,1786
159.324500,1796
159.325000,1801
159.325500,1792
159.326000,1786
159.326500,1797
159.327000,1800
159.327500,1784
159.328000,1798
159.328500,1801
159.329000,1793
159.329500,1788
159.330000,1802
159.330500,1807
159.331000,1788
159.331500,1783
159.332000,1794
159.332500,1788
159.333000,1788
159.333500,1798
159.334000,1809
159.334500,1795
159.335000,1793
159.335500,1808
159.336000,1812
159.336500,1798
159.337000,1813
159.337500,1814
159.338000,1804
159.338500,1799
159.339000,1813
159.339500,1816
159.340000,1800
159.340500,1800
159.341000,1809
159.341500,1796
159.342000,1786
159.342500,1797
159.343000,1802
159.343500,1788
159.344000,1785
159.344500,1798
159.345000,1778
159.345500,1783
159.346000,1792
159.346500,1800
159.347000,1790
159.347500,1786
159.348000,1797
159.348500,1803
159.349000,1787
159.349500,1811
159.350000,1804
159.350500,1795
159.351000,1789
159.351500,1797
159.352000,1804
159.352500,1787
159.353000,1784
159.353500,1802
159.354000,1799
159.354500,1793
159.355000,1808
159.355500,1816
159.356000,1804
159.356500,1796
159.357000,1811
159.357500,1817
159.358000,1799
159.358500,1813
159.359000,1813
159.359500,1799
159.360000,1797
159.360500,1812
159.361000,1811
159.361500,1794
159.362000,1804
159.362500,1802
159.363000,1788
159.363500,1784
159.364000,1792
159.364500,1799
159.365000,1790
159.365500,1783
159.366000,1802
159.366500,1792
159.367000,1784
159.367500,1797
159.368000,1799
159.368500,1785
159.369000,1784
159.369500,1800
159.370000,1809
159.370500,1792
159.371000,1803
159.371500,1804
159.372000,1788
159.372500,1785
159.373000,1802
159.373500,1808
159.374000,1794
159.374500,1818
159.375000,1809
159.375500,1802
159.376000,1798
159.376500,1809
159.377000,1813
159.377500,1800
159.378000,1795
159.378500,1809
159.379000,1804
159.379500,1796
159.380000,1812
159.380500,1817
159.381000,1797
159.381500,1786
159.382000,1799
159.382500,1797
159.383000,1786
159.383500,1792
159.384000,1797
159.384500,1783
159.385000,1781
159.385500,1797
159.386000,1804
159.386500,1785
159.387000,1805
159.387500,1797
159.388000,1786
159.388500,1784
159.389000,1798
159.389500,1802
159.390000,1792
159.390500,1788
159.391000,1803
159.391500,1788
159.392000,1781
159.392500,1793
159.393000,1803
159.393500,1789
159.394000,1790
159.394500,1807
159.395000,1816
159.395500,1797
159.396000,1807
159.396500,1813
159.397000,1802
159.397500,1796
159.398000,1811
159.398500,1813
159.399000,1797
159.399500,1807
159.400000,1810
159.400500,1800
159.401000,1788
159.401500,1802
159.402000,1801
159.402500,1786
159.403000,1780
159.403500,1794
159.404000,1789
159.404500,1781
159.405000,1790
159.405500,1799
159.406000,1787
159.406500,1782
159.407000,1798
159.407500,1803
159.408000,1784
159.408500,1798
159.409000,1800
159.409500,1790
159.410000,1789
159.410500,1802
159.411000,1807
159.411500,1784
159.412000,1800
159.412500,1798
159.413000,1791
159.413500,1784
159.414000,1800
159.414500,1807
159.415000,1796
159.415500,1792
159.416000,1813
159.416500,1805
159.417000,1797
159.417500,1807
159.418000,1814
159.418500,1800
159.419000,1793
159.419500,1808
159.420000,1813
159.420500,1800
159.421000,1796
159.421500,1807
159.422000,1790
159.422500,1783
159.423000,1793
159.423500,1800
159.424000,1787
159.424500,1780
159.425000,1800
159.425500,1789
159.426000,1786
159.426500,1797
159.427000,1801
159.427500,1785
159.428000,1780
159.428500,1797
159.429000,1801
159.429500,1785
159.430000,1797
159.430500,1803
159.431000,1792
159.431500,1784
159.432000,1794
159.432500,1799
159.433000,1789
159.433500,1801
159.434000,1807
159.434500,1797
159.435000,1790
159.435500,1807
159.436000,1813
159.436500,1798
159.437000,1794
159.437500,1810
159.438000,1803
159.438500,1799
159.439000,1808
159.439500,1813
159.440000,1802
159.440500,1797
159.441000,1807
159.441500,1804
159.442000,1787
159.442500,1784
159.443000,1796
159.443500,1787
159.444000,1785
159.444500,1798
159.445000,1805
159.445500,1787
159.446000,1781
159.446500,1795
159.447000,1790
159.447500,1784
159.448000,1794
159.448500,1800
159.449000,1790
159.449500,1787
159.450000,1805
159.450500,1804
159.451000,1789
159.451500,1796
159.452000,1802
159.452500,1787
159.453000,1785
159.453500,1800
159.454000,1809
159.454500,1793
159.455000,1813
159.455500,1814
159.456000,1804
159.456500,1796
159.457000,1806
159.457500,1811
159.458000,1799
159.458500,1796
159.459000,1809
159.459500,1805
159.460000,1801
159.460500,1810
159.461000,1809
159.461500,1792
159.462000,1784
159.462500,1799
159.463000,1803
159.463500,1785
159.464000,1799
159.464500,1795
159.465000,1785
159.465500,1781
159.466000,1797
159.466500,1800
159.467000,1785
159.467500,1783
159.468000,1801
159.468500,1791
159.469000,1788
159.469500,1798
159.470000,1811
159.470500,1795
159.471000,1788
159.471500,1800
159.472000,1784
159.472500,1783
159.473000,1795
159.473500,1801
159.474000,1793
159.474500,1788
159.475000,1809
159.475500,1813
159.476000,1798
159.476500,1806
159.477000,1809
159.477500,1801
159.478000,1799
159.478500,1811
159.479000,1816
159.479500,1799
159.480000,1796
159.480500,1812
159.481000,1804
159.481500,1791
159.482000,1798
159.482500,1803
159.483000,1787
159.483500,1783
159.484000,1796
159.484500,1801
159.485000,1787
159.485500,1799
159.486000,1800
159.486500,1785
159.487000,1781
159.487500,1794
159.488000,1800
159.488500,1785
159.489000,1785
159.489500,1803
159.490000,1796
159.490500,1794
159.491000,1800
159.491500,1800
159.492000,1784
159.492500,1781
159.493000,1803
159.493500,1790
159.494000,1794
159.494500,1806
159.495000,1813
159.495500,1800
159.496000,1796
159.496500,1811
159.497000,1819
159.497500,1803
159.498000,1821
159.498500,1812
159.499000,1800
159.499500,1794
159.500000,1814
159.500500,1814
159.501000,1796
159.501500,1791
159.502000,1799
159.502500,1791
159.503000,1787
159.503500,1792
159.504000,1799
159.504500,1785
159.505000,1783
159.505500,1799
159.506000,1804
159.506500,1784
159.507000,1794
159.507500,1800
159.508000,1787
159.508500,1785
159.509000,1797
159.509500,1804
159.510000,1788
159.510500,1804
159.511000,1805
159.511500,1791
159.512000,1783
159.512500,1797
159.513000,1804
159.513500,1790
159.514000,1790
159.514500,1808
159.515000,1803
159.515500,1796
159.516000,1809
159.516500,1813
159.517000,1800
159.517500,1797
159.518000,1813
159.518500,1817
159.519000,1799
159.519500,1808
159.520000,1818
159.520500,1803
159.521000,1794
159.521500,1802
159.522000,1805
159.522500,1787
159.523000,1804
159.523500,1800
159.524000,1789
159.524500,1782
159.525000,1797
159.525500,1799
159.526000,1787
159.526500,1781
159.527000,1797
159.527500,1791
159.528000,1786
159.528500,1795
159.529000,1801
159.529500,1789
159.530000,1781
159.530500,1801
159.531000,1807
159.531500,1782
159.532000,1795
159.532500,1801
159.533000,1789
159.533500,1787
159.534000,1804
159.534500,1815
159.535000,1802
159.535500,1819
159.536000,1810
159.536500,1800
159.537000,1796
159.537500,1808
159.538000,1814
159.538500,1799
159.539000,1797
159.539500,1807
159.540000,1804
159.540500,1796
159.541000,1799
159.541500,1804
159.542000,1792
159.542500,1785
159.543000,1800
159.543500,1805
159.544000,1785
159.544500,1794
159.545000,1798
159.545500,1787
159.546000,1785
159.546500,1797
159.547000,1803
159.547500,1787
159.548000,1805
159.548500,1801
159.549000,1793
159.549500,1789
159.550000,1805
159.550500,1805
159.551000,1792
159.551500,1783
159.552000,1799
159.552500,1793
159.553000,1786
159.553500,1800
159.554000,1808
159.554500,1799
159.555000,1794
159.555500,1810
159.556000,1816
159.556500,1796
159.557000,1810
159.557500,1811
159.558000,1801
159.558500,1798
159.559000,1809
159.559500,1813
159.560000,1803
159.560500,1814
159.561000,1809
159.561500,1795
159.562000,1785
159.562500,1794
159.563000,1802
159.563500,1785
159.564000,1778
159.564500,1794
159.565000,1794
159.565500,1785
159.566000,1796
159.566500,1801
159.567000,1787
159.567500,1784
159.568000,1800
159.568500,1789
159.569000,1784
159.569500,1793
159.570000,1805
159.570500,1794
159.571000,1788
159.571500,1797
159.572000,1799
159.572500,1786
159.573000,1797
159.573500,1802
159.574000,1795
159.574500,1792
159.575000,1806
159.575500,1812
159.576000,1800
159.576500,1794
159.577000,1806
159.577500,1802
159.578000,1796
159.578500,1807
159.579000,1815
159.579500,1801
159.580000,1796
159.580500,1814
159.581000,1785
159.581500,1790
159.582000,1794
159.582500,1800
159.583000,1788
159.583500,1787
159.584000,1800
159.584500,1804
159.585000,1783
159.585500,1795
159.586000,1802
159.586500,1788
159.587000,1786
159.587500,1799
159.588000,1801
159.588500,1785
159.589000,1805
159.589500,1802
159.590000,1796
159.590500,1791
159.591000,1802
159.591500,1803
159.592000,1787
159.592500,1784
159.593000,1803
159.593500,1795
159.594000,1792
159.594500,1802
159.595000,1812
159.595500,1804
159.596000,1797
159.596500,1809
159.597000,1799
159.597500,1796
159.598000,1810
159.598500,1813
159.599000,1800
159.599500,1794
159.600000,1814
159.600500,1813
159.601000,1793
159.601500,1797
159.602000,1801
159.602500,1789
159.603000,1783
159.603500,1795
159.604000,1801
159.604500,1783
159.605000,1800
159.605500,1799
159.606000,1790
159.606500,1785
159.607000,1795
159.607500,1801
159.608000,1788
159.608500,1784
159.609000,1804
159.609500,1796
159.610000,1792
159.610500,1796
159.611000,1803
159.611500,1786
159.612000,1781
159.612500,1795
159.613000,1792
159.613500,1791
159.614000,1804
159.614500,1806
159.615000,1795
159.615500,1793
159.616000,1812
159.616500,1815
159.617000,1798
159.617500,1797
159.618000,1814
159.618500,1803
159.619000,1797
159.619500,1809
159.620000,1814
159.620500,1800
159.621000,1790
159.621500,1804
159.622000,1792
159.622500,1784
159.623000,1796
159.623500,1802
159.624000,1785
159.624500,1779
159.625000,1794
159.625500,1784
159.626000,1785
159.626500,1792
159.627000,1799
159.627500,1788
159.628000,1786
159.628500,1801
159.629000,1805
159.629500,1785
159.630000,1788
159.630500,1799
159.631000,1791
159.631500,1781
159.632000,1796
159.632500,1799
159.633000,1789
159.633500,1784
159.634000,1804
159.634500,1798
159.635000,1797
159.635500,1808
159.636000,1815
159.636500,1801
159.637000,1795
159.637500,1812
159.638000,1807
159.638500,1801
159.639000,1809
159.639500,1814
159.640000,1801
159.640500,1800
159.641000,1809
159.641500,1808
159.642000,1784
159.642500,1796
159.643000,1800
159.643500,1789
159.644000,1784
159.644500,1795
159.645000,1798
159.645500,1784
159.646000,1781
159.646500,1799
159.647000,1789
159.647500,1786
159.648000,1798
159.648500,1805
159.649000,1792
159.649500,1783
159.650000,1804
159.650500,1797
159.651000,1789
159.651500,1793
159.652000,1799
159.652500,1787
159.653000,1783
159.653500,1802
159.654000,1811
159.654500,1794
159.655000,1807
159.655500,1812
159.656000,1800
159.656500,1796
159.657000,1811
159.657500,1815
159.658000,1801
159.658500,1819
159.659000,1813
159.659500,1801
159.660000,1799
159.660500,1811
159.661000,1810
159.661500,1793
159.662000,1784
159.662500,1798
159.663000,1788
159.663500,1782
159.664000,1794
159.664500,1800
159.665000,1784
159.665500,1781
159.666000,1799
159.666500,1787
159.667000,1788
159.667500,1798
159.668000,1804
159.668500,1788
159.669000,1784
159.669500,1801
159.670000,1808
159.670500,1788
159.671000,1790
159.671500,1800
159.672000,1785
159.672500,1783
159.673000,1798
159.673500,1805
159.674000,1793
159.674500,1788
159.675000,1810
159.675500,1799
159.676000,1797
159.676500,1807
159.677000,1814
159.677500,1800
159.678000,1797
159.678500,1813
159.679000,1803
159.679500,1796
159.680000,1809
159.680500,1814
159.681000,1798
159.681500,1790
159.682000,1800
159.682500,1802
159.683000,1784
159.683500,1794
159.684000,1800
159.684500,1786
159.685000,1780
159.685500,1796
159.686000,1801
159.686500,1784
159.687000,1800
159.687500,1798
159.688000,1790
159.688500,1785
159.689000,1797
159.689500,1803
159.690000,1792
159.690500,1786
159.691000,1805
159.691500,1796
159.692000,1785
159.692500,1794
159.693000,1804
159.693500,1790
159.694000,1788
159.694500,1806
159.695000,1812
159.695500,1796
159.696000,1807
159.696500,1812
159.697000,1801
159.697500,1796
159.698000,1809
159.698500,1816
159.699000,1799
159.699500,1808
159.700000,1810
159.700500,1802
159.701000,1792
159.701500,1802
159.702000,1803
159.702500,1787
159.703000,1783
159.703500,1801
159.704000,1789
159.704500,1782
159.705000,1793
159.705500,1803
159.706000,1790
159.706500,1779
159.707000,1798
159.707500,1794
159.708000,1788
159.708500,1798
159.709000,1804
159.709500,1789
159.710000,1790
159.710500,1807
159.711000,1811
159.711500,1784
159.712000,1796
159.712500,1799
159.713000,1792
159.713500,1788
159.714000,1803
159.714500,1808
159.715000,1792
159.715500,1813
159.716000,1814
159.716500,1797
159.717000,1796
159.717500,1807
159.718000,1814
159.718500,1801
159.719000,1795
159.719500,1811
159.720000,1805
159.720500,1801
159.721000,1805
159.721500,1802
159.722000,1790
159.722500,1782
159.723000,1798
159.723500,1799
159.724000,1786
159.724500,1791
159.725000,1797
159.725500,1786
159.726000,1784
159.726500,1797
159.727000,1803
159.727500,1787
159.728000,1799
159.728500,1804
159.729000,1791
159.729500,1783
159.730000,1802
159.730500,1804
159.731000,1792
159.731500,1783
159.732000,1797
159.732500,1790
159.733000,1786
159.733500,1797
159.734000,1806
159.734500,1794
159.735000,1796
159.735500,1811
159.736000,1800
159.736500,1798
159.737000,1805
159.737500,1814
159.738000,1804
159.738500,1798
159.739000,1811
159.739500,1815
159.740000,1796
159.740500,1811
159.741000,1809
159.741500,1796
159.742000,1787
159.742500,1799
159.743000,1801
159.743500,1782
159.744000,1782
159.744500,1800
159.745000,1789
159.745500,1784
159.746000,1799
159.746500,1803
159.747000,1787
159.747500,1783
159.748000,1800
159.748500,1794
159.749000,1785
159.749500,1797
159.750000,1804
159.750500,1793
159.751000,1788
159.751500,1797
159.752000,1802
159.752500,1784
159.753000,1798
159.753500,1802
159.754000,1795
159.754500,1791
159.755000,1806
159.755500,1814
159.756000,1799
159.756500,1810
159.757000,1814
159.757500,1804
159.758000,1798
159.758500,1810
159.759000,1818
159.759500,1803
159.760000,1800
159.760500,1812
159.761000,1799
159.761500,1788
159.762000,1796
159.762500,1800
159.763000,1785
159.763500,1780
159.764000,1794
159.764500,1802
159.765000,1785
159.765500,1793
159.766000,1797
159.766500,1783
159.767000,1780
159.767500,1798
159.768000,1804
159.768500,1788
159.769000,1782
159.769500,1799
159.770000,1793
159.770500,1788
159.771000,1799
159.771500,1804
159.772000,1786
159.772500,1782
159.773000,1798
159.773500,1784
159.774000,1791
159.774500,1801
159.775000,1811
159.775500,1803
159.776000,1800
159.776500,1809
159.777000,1812
159.777500,1799
159.778000,1800
159.778500,1815
159.779000,1805
159.779500,1796
159.780000,1812
159.780500,1820
159.781000,1798
159.781500,1786
159.782000,1801
159.782500,1790
159.783000,1785
159.783500,1797
159.784000,1801
159.784500,1785
159.785000,1778
159.785500,1799
159.786000,1786
159.786500,1787
159.787000,1798
159.787500,1801
159.788000,1788
159.788500,1785
159.789000,1801
159.789500,1807
159.790000,1788
159.790500,1797
159.791000,1805
159.791500,1788
159.792000,1782
159.792500,1797
159.793000,1803
159.793500,1784
159.794000,1785
159.794500,1806
159.795000,1799
159.795500,1797
159.796000,1808
159.796500,1813
159.797000,1801
159.797500,1797
159.798000,1813
159.798500,1805
159.799000,1799
159.799500,1809
159.800000,1811
159.800500,1803
159.801000,1796
159.801500,1805
159.802000,1806
159.802500,1788
159.803000,1798
159.803500,1799
159.804000,1789
159.804500,1786
159.805000,1799
159.805500,1803
159.806000,1784
159.806500,1786
159.807000,1796
159.807500,1787
159.808000,1784
159.808500,1796
159.809000,1803
159.809500,1789
159.810000,1786
159.810500,1803
159.811000,1796
159.811500,1786
159.812000,1796
159.812500,1800
159.813000,1787
159.813500,1786
159.814000,1803
159.814500,1808
159.815000,1794
159.815500,1810
159.816000,1816
159.816500,1801
159.817000,1797
159.817500,1808
159.818000,1815
159.818500,1800
159.819000,1793
159.819500,1812
159.820000,1802
159.820500,1802
159.821000,1807
159.821500,1809
159.822000,1792
159.822500,1783
159.823000,1800
159.823500,1785
159.824000,1784
159.824500,1795
159.825000,1803
159.825500,1787
159.826000,1785
159.826500,1799
159.827000,1803
159.827500,1783
159.828000,1790
159.828500,1800
159.829000,1790
159.829500,1783
159.830000,1799
159.830500,1807
159.831000,1790
159.831500,1782
159.832000,1801
159.832500,1788
159.833000,1787
159.833500,1800
159.834000,1808
159.834500,1797
159.835000,1795
159.835500,1809
159.836000,1806
159.836500,1797
159.837000,1809
159.837500,1814
159.838000,1804
159.838500,1796
159.839000,1812
159.839500,1814
159.840000,1798
159.840500,1814
159.841000,1810
159.841500,1794
159.842000,1784
159.842500,1797
159.843000,1800
159.843500,1783
159.844000,1790
159.844500,1797
159.845000,1790
159.845500,1785
159.846000,1799
159.846500,1799
159.847000,1788
159.847500,1782
159.848000,1800
159.848500,1786
159.849000,1786
159.849500,1796
159.850000,1803
159.850500,1791
159.851000,1788
159.851500,1799
159.852000,1802
159.852500,1783
159.853000,1803
159.853500,1806
159.854000,1796
159.854500,1792
159.855000,1805
159.855500,1813
159.856000,1803
159.856500,1796
159.857000,1812
159.857500,1805
159.858000,1796
159.858500,1809
159.859000,1815
159.859500,1801
159.860000,1796
159.860500,1815
159.861000,1812
159.861500,1789
159.862000,1796
159.862500,1799
159.863000,1790
159.863500,1783
159.864000,1794
159.864500,1798
159.865000,1784
159.865500,1780
159.866000,1799
159.866500,1787
159.867000,1785
159.867500,1795
159.868000,1801
159.868500,1787
159.869000,1782
159.869500,1799
159.870000,1793
159.870500,1790
159.871000,1799
159.871500,1801
159.872000,1787
159.872500,1781
159.873000,1800
159.873500,1806
159.874000,1790
159.874500,1797
159.875000,1810
159.875500,1800
159.876000,1798
159.876500,1812
159.877000,1813
159.877500,1798
159.878000,1800
159.878500,1814
159.879000,1802
159.879500,1797
159.880000,1812
159.880500,1816
159.881000,1799
159.881500,1789
159.882000,1802
159.882500,1787
159.883000,1787
159.883500,1799
159.884000,1799
159.884500,1785
159.885000,1781
159.885500,1796
159.886000,1802
159.886500,1785
159.887000,1783
159.887500,1799
159.888000,1791
159.888500,1783
159.889000,1797
159.889500,1803
159.890000,1793
159.890500,1788
159.891000,1809
159.891500,1795
159.892000,1786
159.892500,1797
159.893000,1802
159.893500,1792
159.894000,1787
159.894500,1807
159.895000,1802
159.895500,1798
159.896000,1813
159.896500,1815
159.897000,1800
159.897500,1797
159.898000,1813
159.898500,1818
159.899000,1802
159.899500,1811
159.900000,1811
159.900500,1799
159.901000,1791
159.901500,1801
159.902000,1806
159.902500,1790
159.903000,1804
159.903500,1801
159.904000,1788
159.904500,1781
159.905000,1797
159.905500,1801
159.906000,1786
159.906500,1785
159.907000,1798
159.907500,1793
159.908000,1787
159.908500,1795
159.909000,1799
159.909500,1791
159.910000,1788
159.910500,1802
159.911000,1809
159.911500,1786
159.912000,1794
159.912500,1799
159.913000,1792
159.913500,1787
159.914000,1803
159.914500,1810
