# Subject: DANNY
# Trial: no_active2
# Notes: 
# Muscles: Ch1
# fs=2000 Hz, nch=1, vref=3.3 V
t_s,ch1_code
162.920000,1562
162.920500,1576
162.921000,1588
162.921500,1600
162.922000,1614
162.922500,1626
162.923000,1635
162.923500,1647
162.924000,1655
162.924500,1670
162.925000,3347
162.925500,3692
162.926000,3691
162.926500,3688
162.927000,3689
162.927500,3690
162.928000,3690
162.928500,1733
162.929000,400
162.929500,492
162.930000,578
162.930500,658
162.931000,728
162.931500,796
162.932000,860
162.932500,920
162.933000,976
162.933500,1030
162.934000,1078
162.934500,1125
162.935000,1170
162.935500,1207
162.936000,1242
162.936500,1278
162.937000,1311
162.937500,1342
162.938000,1371
162.938500,1398
162.939000,1425
162.939500,1448
162.940000,1472
162.940500,1493
162.941000,1512
162.941500,1529
162.942000,1547
162.942500,1563
162.943000,1578
162.943500,1592
162.944000,1606
162.944500,1623
162.945000,3464
162.945500,3691
162.946000,3691
162.946500,3689
162.947000,3690
162.947500,3689
162.948000,3690
162.948500,521
162.949000,604
162.949500,682
162.950000,758
162.950500,823
162.951000,887
162.951500,944
162.952000,997
162.952500,1050
162.953000,1092
162.953500,1143
162.954000,1184
162.954500,1225
162.955000,1264
162.955500,1296
162.956000,1326
162.956500,1355
162.957000,1386
162.957500,1410
162.958000,1437
162.958500,1458
162.959000,1480
162.959500,1500
162.960000,1523
162.960500,1540
162.961000,1554
162.961500,1570
162.962000,1585
162.962500,1598
162.963000,1606
162.963500,1623
162.964000,1634
162.964500,1655
162.965000,2692
162.965500,3692
162.966000,3691
162.966500,3690
162.967000,3689
162.967500,3688
162.968000,3688
162.968500,3690
162.969000,284
162.969500,384
162.970000,476
162.970500,561
162.971000,641
162.971500,713
162.972000,783
162.972500,849
162.973000,910
162.973500,965
162.974000,1019
162.974500,1068
162.975000,1114
162.975500,1160
162.976000,1198
162.976500,1235
162.977000,1270
162.977500,1304
162.978000,1335
162.978500,1366
162.979000,1393
162.979500,1420
162.980000,1449
162.980500,1470
162.981000,1490
162.981500,1507
162.982000,1526
162.982500,1544
162.983000,1560
162.983500,1575
162.984000,1588
162.984500,1609
162.985000,3268
162.985500,3692
162.986000,3692
162.986500,3688
162.987000,3688
162.987500,3690
162.988000,3688
162.988500,3690
162.989000,3689
162.989500,14
162.990000,130
162.990500,238
162.991000,336
162.991500,430
162.992000,519
162.992500,597
162.993000,675
162.993500,745
162.994000,812
162.994500,874
162.995000,933
162.995500,991
162.996000,1039
162.996500,1087
162.997000,1130
162.997500,1173
162.998000,1213
162.998500,1250
162.999000,1284
162.999500,1317
163.000000,1355
163.000500,1378
163.001000,1404
163.001500,1429
163.002000,1452
163.002500,1476
163.003000,1495
163.003500,1514
163.004000,1531
163.004500,1558
163.005000,3122
163.005500,3692
163.006000,3692
163.006500,3691
163.007000,3688
163.007500,3690
163.008000,3688
163.008500,3690
163.009000,765
163.009500,163
163.010000,272
163.010500,370
163.011000,458
163.011500,544
163.012000,622
163.012500,697
163.013000,768
163.013500,833
163.014000,895
163.014500,950
163.015000,1008
163.015500,1056
163.016000,1102
163.016500,1145
163.017000,1186
163.017500,1226
163.018000,1262
163.018500,1297
163.019000,1329
163.019500,1359
163.020000,1390
163.020500,1414
163.021000,1439
163.021500,1459
163.022000,1480
163.022500,1504
163.023000,1521
163.023500,1539
163.024000,1554
163.024500,1575
163.025000,2569
163.025500,3692
163.026000,3691
163.026500,3690
163.027000,3689
163.027500,3688
163.028000,3690
163.028500,3688
163.029000,3688
163.029500,0
163.030000,113
163.030500,223
163.031000,324
163.031500,416
163.032000,504
163.032500,586
163.033000,663
163.033500,736
163.034000,800
163.034500,866
163.035000,926
163.035500,981
163.036000,1033
163.036500,1080
163.037000,1124
163.037500,1167
163.038000,1207
163.038500,1245
163.039000,1280
163.039500,1314
163.040000,1344
163.040500,1374
163.041000,1401
163.041500,1424
163.042000,1449
163.042500,1471
163.043000,1491
163.043500,1510
163.044000,1530
163.044500,1554
163.045000,2501
163.045500,3692
163.046000,3692
163.046500,3689
163.047000,3689
163.047500,3689
163.048000,3688
163.048500,3688
163.049000,114
163.049500,224
163.050000,326
163.050500,422
163.051000,509
163.051500,589
163.052000,666
163.052500,740
163.053000,806
163.053500,870
163.054000,928
163.054500,983
163.055000,1034
163.055500,1085
163.056000,1129
163.056500,1170
163.057000,1210
163.057500,1248
163.058000,1282
163.058500,1315
163.059000,1346
163.059500,1375
163.060000,1404
163.060500,1429
163.061000,1450
163.061500,1472
163.062000,1493
163.062500,1512
163.063000,1531
163.063500,1548
163.064000,1563
163.064500,1582
163.065000,2726
163.065500,3691
163.066000,3693
163.066500,3690
163.067000,3688
163.067500,3689
163.068000,3688
163.068500,3688
163.069000,2619
163.069500,124
163.070000,235
163.070500,335
163.071000,427
163.071500,514
163.072000,594
163.072500,671
163.073000,743
163.073500,811
163.074000,873
163.074500,931
163.075000,989
163.075500,1042
163.076000,1088
163.076500,1130
163.077000,1172
163.077500,1213
163.078000,1251
163.078500,1284
163.079000,1316
163.079500,1348
163.080000,1376
163.080500,1405
163.081000,1428
163.081500,1451
163.082000,1474
163.082500,1495
163.083000,1514
163.083500,1531
163.084000,1548
163.084500,1570
163.085000,2332
163.085500,3697
163.086000,3697
163.086500,3689
163.087000,3688
163.087500,3688
163.088000,3689
163.088500,3689
163.089000,3688
163.089500,2148
163.090000,51
163.090500,168
163.091000,269
163.091500,368
163.092000,458
163.092500,543
163.093000,623
163.093500,698
163.094000,767
163.094500,832
163.095000,892
163.095500,951
163.096000,1003
163.096500,1053
163.097000,1099
163.097500,1144
163.098000,1187
163.098500,1224
163.099000,1262
163.099500,1294
163.100000,1328
163.100500,1358
163.101000,1385
163.101500,1411
163.102000,1435
163.102500,1460
163.103000,1481
163.103500,1499
163.104000,1521
163.104500,1540
163.105000,2408
163.105500,3691
163.106000,3692
163.106500,3689
163.107000,3690
163.107500,3690
163.108000,3689
163.108500,2102
163.109000,434
163.109500,521
163.110000,608
163.110500,683
163.111000,753
163.111500,818
163.112000,882
163.112500,940
163.113000,996
163.113500,1047
163.114000,1095
163.114500,1139
163.115000,1184
163.115500,1223
163.116000,1260
163.116500,1290
163.117000,1322
163.117500,1356
163.118000,1381
163.118500,1408
163.119000,1434
163.119500,1457
163.120000,1482
163.120500,1501
163.121000,1520
163.121500,1535
163.122000,1552
163.122500,1568
163.123000,1582
163.123500,1597
163.124000,1609
163.124500,1624
163.125000,2354
163.125500,3693
163.126000,3692
163.126500,3690
163.127000,3689
163.127500,3689
163.128000,3690
163.128500,2794
163.129000,565
163.129500,645
163.130000,723
163.130500,792
163.131000,856
163.131500,916
163.132000,973
163.132500,1026
163.133000,1076
163.133500,1121
163.134000,1165
163.134500,1204
163.135000,1242
163.135500,1279
163.136000,1311
163.136500,1343
163.137000,1371
163.137500,1400
163.138000,1422
163.138500,1448
163.139000,1470
163.139500,1491
163.140000,1511
163.140500,1530
163.141000,1547
163.141500,1562
163.142000,1577
163.142500,1593
163.143000,1606
163.143500,1617
163.144000,1629
163.144500,1642
163.145000,2402
163.145500,3691
163.146000,3691
163.146500,3690
163.147000,3689
163.147500,3688
163.148000,3690
163.148500,3690
163.149000,3689
163.149500,1748
163.150000,216
163.150500,316
163.151000,413
163.151500,501
163.152000,583
163.152500,659
163.153000,733
163.153500,801
163.154000,864
163.154500,924
163.155000,987
163.155500,1031
163.156000,1078
163.156500,1124
163.157000,1167
163.157500,1208
163.158000,1246
163.158500,1280
163.159000,1312
163.159500,1343
163.160000,1374
163.160500,1402
163.161000,1427
163.161500,1449
163.162000,1470
163.162500,1491
163.163000,1511
163.163500,1530
163.164000,1550
163.164500,1568
163.165000,2316
163.165500,3692
163.166000,3693
163.166500,3688
163.167000,3690
163.167500,3690
163.168000,3689
163.168500,3690
163.169000,3403
163.169500,160
163.170000,267
163.170500,365
163.171000,462
163.171500,543
163.172000,624
163.172500,696
163.173000,767
163.173500,835
163.174000,893
163.174500,951
163.175000,1010
163.175500,1059
163.176000,1103
163.176500,1146
163.177000,1186
163.177500,1226
163.178000,1262
163.178500,1298
163.179000,1327
163.179500,1359
163.180000,1387
163.180500,1417
163.181000,1441
163.181500,1460
163.182000,1482
163.182500,1502
163.183000,1520
163.183500,1540
163.184000,1554
163.184500,1575
163.185000,1958
163.185500,3691
163.186000,3693
163.186500,3689
163.187000,3689
163.187500,3690
163.188000,3690
163.188500,3689
163.189000,1730
163.189500,195
163.190000,298
163.190500,396
163.191000,486
163.191500,568
163.192000,648
163.192500,720
163.193000,789
163.193500,854
163.194000,913
163.194500,969
163.195000,1026
163.195500,1072
163.196000,1118
163.196500,1159
163.197000,1199
163.197500,1238
163.198000,1275
163.198500,1306
163.199000,1339
163.199500,1369
163.200000,1394
163.200500,1423
163.201000,1445
163.201500,1466
163.202000,1487
163.202500,1507
163.203000,1528
163.203500,1545
163.204000,1560
163.204500,1582
163.205000,2007
163.205500,3691
163.206000,3691
163.206500,3688
163.207000,3690
163.207500,3688
163.208000,3689
163.208500,3688
163.209000,226
163.209500,326
163.210000,421
163.210500,512
163.211000,592
163.211500,670
163.212000,742
163.212500,810
163.213000,873
163.213500,931
163.214000,986
163.214500,1036
163.215000,1089
163.215500,1133
163.216000,1176
163.216500,1211
163.217000,1249
163.217500,1283
163.218000,1316
163.218500,1349
163.219000,1375
163.219500,1403
163.220000,1427
163.220500,1457
163.221000,1477
163.221500,1495
163.222000,1514
163.222500,1533
163.223000,1549
163.223500,1566
163.224000,1581
163.224500,1601
163.225000,1913
163.225500,3692
163.226000,3691
163.226500,3690
163.227000,3689
163.227500,3690
163.228000,3688
163.228500,3688
163.229000,274
163.229500,370
163.230000,463
163.230500,548
163.231000,630
163.231500,705
163.232000,774
163.232500,841
163.233000,902
163.233500,961
163.234000,1012
163.234500,1061
163.235000,1108
163.235500,1153
163.236000,1190
163.236500,1231
163.237000,1266
163.237500,1302
163.238000,1333
163.238500,1362
163.239000,1390
163.239500,1417
163.240000,1442
163.240500,1466
163.241000,1486
163.241500,1507
163.242000,1523
163.242500,1542
163.243000,1557
163.243500,1573
163.244000,1587
163.244500,1603
163.245000,1890
163.245500,3696
163.246000,3697
163.246500,3689
163.247000,3690
163.247500,3690
163.248000,3690
163.248500,3688
163.249000,408
163.249500,498
163.250000,586
163.250500,662
163.251000,734
163.251500,803
163.252000,866
163.252500,926
163.253000,982
163.253500,1035
163.254000,1082
163.254500,1128
163.255000,1174
163.255500,1212
163.256000,1250
163.256500,1282
163.257000,1315
163.257500,1346
163.258000,1373
163.258500,1403
163.259000,1427
163.259500,1451
163.260000,1476
163.260500,1496
163.261000,1514
163.261500,1530
163.262000,1547
163.262500,1563
163.263000,1580
163.263500,1595
163.264000,1607
163.264500,1623
163.265000,1794
163.265500,3692
163.266000,3692
163.266500,3690
163.267000,3689
163.267500,3690
163.268000,3690
163.268500,3690
163.269000,1962
163.269500,209
163.270000,313
163.270500,409
163.271000,503
163.271500,580
163.272000,658
163.272500,731
163.273000,801
163.273500,864
163.274000,922
163.274500,978
163.275000,1029
163.275500,1079
163.276000,1123
163.276500,1165
163.277000,1207
163.277500,1243
163.278000,1277
163.278500,1312
163.279000,1342
163.279500,1371
163.280000,1401
163.280500,1428
163.281000,1451
163.281500,1470
163.282000,1492
163.282500,1510
163.283000,1529
163.283500,1550
163.284000,1563
163.284500,1580
163.285000,1794
163.285500,3692
163.286000,3691
163.286500,3688
163.287000,3689
163.287500,3690
163.288000,3689
163.288500,3688
163.289000,1307
163.289500,308
163.290000,406
163.290500,494
163.291000,579
163.291500,656
163.292000,730
163.292500,798
163.293000,863
163.293500,922
163.294000,976
163.294500,1029
163.295000,1077
163.295500,1123
163.296000,1166
163.296500,1205
163.297000,1244
163.297500,1278
163.298000,1311
163.298500,1342
163.299000,1372
163.299500,1399
163.300000,1425
163.300500,1449
163.301000,1473
163.301500,1490
163.302000,1511
163.302500,1529
163.303000,1545
163.303500,1564
163.304000,1579
163.304500,1591
163.305000,1800
163.305500,3690
163.306000,3691
163.306500,3688
163.307000,3689
163.307500,3689
163.308000,3690
163.308500,3688
163.309000,3688
163.309500,3690
163.310000,0
163.310500,0
163.311000,56
163.311500,167
163.312000,273
163.312500,368
163.313000,459
163.313500,544
163.314000,622
163.314500,697
163.315000,768
163.315500,833
163.316000,892
163.316500,948
163.317000,1001
163.317500,1052
163.318000,1100
163.318500,1145
163.319000,1185
163.319500,1225
163.320000,1260
163.320500,1296
163.321000,1328
163.321500,1355
163.322000,1383
163.322500,1411
163.323000,1437
163.323500,1458
163.324000,1481
163.324500,1500
163.325000,1702
163.325500,3692
163.326000,3691
163.326500,3689
163.327000,3690
163.327500,3689
163.328000,3689
163.328500,3690
163.329000,845
163.329500,249
163.330000,350
163.330500,446
163.331000,530
163.331500,610
163.332000,687
163.332500,756
163.333000,826
163.333500,886
163.334000,944
163.334500,998
163.335000,1051
163.335500,1097
163.336000,1138
163.336500,1180
163.337000,1220
163.337500,1256
163.338000,1290
163.338500,1323
163.339000,1354
163.339500,1383
163.340000,1410
163.340500,1437
163.341000,1462
163.341500,1478
163.342000,1499
163.342500,1518
163.343000,1535
163.343500,1552
163.344000,1568
163.344500,1582
163.345000,1726
163.345500,3692
163.346000,3692
163.346500,3688
163.347000,3690
163.347500,3688
163.348000,3690
163.348500,3689
163.349000,3690
163.349500,3687
163.350000,0
163.350500,39
163.351000,153
163.351500,258
163.352000,356
163.352500,446
163.353000,534
163.353500,613
163.354000,688
163.354500,758
163.355000,822
163.355500,887
163.356000,942
163.356500,995
163.357000,1041
163.357500,1094
163.358000,1137
163.358500,1181
163.359000,1220
163.359500,1256
163.360000,1293
163.360500,1324
163.361000,1354
163.361500,1381
163.362000,1408
163.362500,1433
163.363000,1456
163.363500,1478
163.364000,1497
163.364500,1516
163.365000,1565
163.365500,3691
163.366000,3692
163.366500,3688
163.367000,3689
163.367500,3689
163.368000,3689
163.368500,3546
163.369000,536
163.369500,618
163.370000,695
163.370500,769
163.371000,836
163.371500,895
163.372000,951
163.372500,1008
163.373000,1059
163.373500,1106
163.374000,1151
163.374500,1190
163.375000,1230
163.375500,1266
163.376000,1300
163.376500,1331
163.377000,1358
163.377500,1386
163.378000,1414
163.378500,1438
163.379000,1461
163.379500,1484
163.380000,1506
163.380500,1524
163.381000,1542
163.381500,1556
163.382000,1572
163.382500,1586
163.383000,1599
163.383500,1614
163.384000,1624
163.384500,1635
163.385000,1744
163.385500,3690
163.386000,3692
163.386500,3689
163.387000,3689
163.387500,3688
163.388000,3689
163.388500,3690
163.389000,526
163.389500,606
163.390000,689
163.390500,758
163.391000,824
163.391500,887
163.392000,946
163.392500,1000
163.393000,1050
163.393500,1099
163.394000,1144
163.394500,1184
163.395000,1226
163.395500,1260
163.396000,1295
163.396500,1326
163.397000,1355
163.397500,1384
163.398000,1410
163.398500,1435
163.399000,1459
163.399500,1482
163.400000,1503
163.400500,1522
163.401000,1539
163.401500,1556
163.402000,1570
163.402500,1586
163.403000,1598
163.403500,1610
163.404000,1623
163.404500,1635
163.405000,1674
163.405500,3688
163.406000,3691
163.406500,3690
163.407000,3687
163.407500,3688
163.408000,3690
163.408500,3689
163.409000,3688
163.409500,2343
163.410000,121
163.410500,231
163.411000,332
163.411500,425
163.412000,513
163.412500,592
163.413000,671
163.413500,745
163.414000,810
163.414500,873
163.415000,939
163.415500,987
163.416000,1037
163.416500,1085
163.417000,1130
163.417500,1172
163.418000,1212
163.418500,1245
163.419000,1284
163.419500,1316
163.420000,1348
163.420500,1378
163.421000,1406
163.421500,1428
163.422000,1451
163.422500,1475
163.423000,1494
163.423500,1515
163.424000,1532
163.424500,1549
163.425000,1612
163.425500,3690
163.426000,3692
163.426500,3688
163.427000,3688
163.427500,3690
163.428000,3690
163.428500,3689
163.429000,3689
163.429500,3556
163.430000,33
163.430500,148
163.431000,253
163.431500,352
163.432000,445
163.432500,529
163.433000,610
163.433500,685
163.434000,756
163.434500,823
163.435000,883
163.435500,942
163.436000,999
163.436500,1044
163.437000,1094
163.437500,1139
163.438000,1181
163.438500,1220
163.439000,1257
163.439500,1292
163.440000,1324
163.440500,1354
163.441000,1383
163.441500,1408
163.442000,1434
163.442500,1456
163.443000,1476
163.443500,1498
163.444000,1518
163.444500,1534
163.445000,1582
163.445500,3690
163.446000,3693
163.446500,3690
163.447000,3690
163.447500,3690
163.448000,3689
163.448500,3689
163.449000,3688
163.449500,855
163.450000,202
163.450500,302
163.451000,398
163.451500,486
163.452000,572
163.452500,647
163.453000,722
163.453500,791
163.454000,854
163.454500,915
163.455000,971
163.455500,1023
163.456000,1073
163.456500,1117
163.457000,1159
163.457500,1200
163.458000,1238
163.458500,1274
163.459000,1306
163.459500,1339
163.460000,1368
163.460500,1397
163.461000,1420
163.461500,1444
163.462000,1466
163.462500,1489
163.463000,1508
163.463500,1525
163.464000,1544
163.464500,1560
163.465000,1625
163.465500,3691
163.466000,3692
163.466500,3689
163.467000,3690
163.467500,3682
163.468000,3689
163.468500,3689
163.469000,3689
163.469500,2427
163.470000,12
163.470500,129
163.471000,234
163.471500,334
163.472000,429
163.472500,516
163.473000,598
163.473500,671
163.474000,744
163.474500,810
163.475000,875
163.475500,932
163.476000,985
163.476500,1036
163.477000,1085
163.477500,1130
163.478000,1171
163.478500,1211
163.479000,1248
163.479500,1285
163.480000,1320
163.480500,1350
163.481000,1379
163.481500,1403
163.482000,1428
163.482500,1451
163.483000,1474
163.483500,1488
163.484000,1514
163.484500,1530
163.485000,1563
163.485500,3690
163.486000,3692
163.486500,3689
163.487000,3688
163.487500,3689
163.488000,3689
163.488500,3689
163.489000,3689
163.489500,0
163.490000,119
163.490500,227
163.491000,327
163.491500,419
163.492000,508
163.492500,591
163.493000,668
163.493500,739
163.494000,810
163.494500,869
163.495000,929
163.495500,983
163.496000,1034
163.496500,1081
163.497000,1126
163.497500,1170
163.498000,1209
163.498500,1246
163.499000,1282
163.499500,1315
163.500000,1350
163.500500,1379
163.501000,1399
163.501500,1426
163.502000,1450
163.502500,1472
163.503000,1494
163.503500,1511
163.504000,1530
163.504500,1547
163.505000,1572
163.505500,3226
163.506000,3692
163.506500,3689
163.507000,3690
163.507500,3689
163.508000,3688
163.508500,3690
163.509000,3690
163.509500,2395
163.510000,182
163.510500,286
163.511000,387
163.511500,474
163.512000,559
163.512500,638
163.513000,711
163.513500,785
163.514000,846
163.514500,907
163.515000,962
163.515500,1016
163.516000,1064
163.516500,1109
163.517000,1152
163.517500,1195
163.518000,1234
163.518500,1269
163.519000,1305
163.519500,1335
163.520000,1365
163.520500,1393
163.521000,1422
163.521500,1441
163.522000,1463
163.522500,1486
163.523000,1505
163.523500,1524
163.524000,1542
163.524500,1558
163.525000,1582
163.525500,3694
163.526000,3692
163.526500,3689
163.527000,3689
163.527500,3688
163.528000,3690
163.528500,3690
163.529000,331
163.529500,426
163.530000,517
163.530500,601
163.531000,678
163.531500,747
163.532000,815
163.532500,877
163.533000,936
163.533500,992
163.534000,1042
163.534500,1091
163.535000,1139
163.535500,1179
163.536000,1215
163.536500,1253
163.537000,1287
163.537500,1320
163.538000,1350
163.538500,1380
163.539000,1406
163.539500,1431
163.540000,1456
163.540500,1479
163.541000,1498
163.541500,1516
163.542000,1535
163.542500,1551
163.543000,1566
163.543500,1581
163.544000,1596
163.544500,1609
163.545000,1627
163.545500,3690
163.546000,3691
163.546500,3690
163.547000,3689
163.547500,3688
163.548000,3687
163.548500,3690
163.549000,3690
163.549500,3689
163.550000,0
163.550500,102
163.551000,212
163.551500,313
163.552000,406
163.552500,495
163.553000,578
163.553500,656
163.554000,728
163.554500,795
163.555000,861
163.555500,918
163.556000,974
163.556500,1024
163.557000,1074
163.557500,1119
163.558000,1162
163.558500,1203
163.559000,1242
163.559500,1276
163.560000,1310
163.560500,1342
163.561000,1370
163.561500,1396
163.562000,1423
163.562500,1439
163.563000,1468
163.563500,1489
163.564000,1510
163.564500,1527
163.565000,1571
163.565500,3690
163.566000,3692
163.566500,3688
163.567000,3688
163.567500,3689
163.568000,3688
163.568500,3689
163.569000,2044
163.569500,331
163.570000,423
163.570500,514
163.571000,595
163.571500,672
163.572000,745
163.572500,812
163.573000,875
163.573500,934
163.574000,988
163.574500,1041
163.575000,1089
163.575500,1134
163.576000,1176
163.576500,1214
163.577000,1251
163.577500,1286
163.578000,1319
163.578500,1349
163.579000,1377
163.579500,1404
163.580000,1433
163.580500,1456
163.581000,1477
163.581500,1495
163.582000,1514
163.582500,1534
163.583000,1551
163.583500,1565
163.584000,1582
163.584500,1593
163.585000,1619
163.585500,3093
163.586000,3692
163.586500,3690
163.587000,3690
163.587500,3688
163.588000,3686
163.588500,3689
163.589000,3690
163.589500,2062
163.590000,261
163.590500,360
163.591000,452
163.591500,537
163.592000,621
163.592500,693
163.593000,764
163.593500,831
163.594000,892
163.594500,953
163.595000,1003
163.595500,1056
163.596000,1103
163.596500,1144
163.597000,1186
163.597500,1224
163.598000,1262
163.598500,1296
163.599000,1327
163.599500,1359
163.600000,1387
163.600500,1416
163.601000,1439
163.601500,1458
163.602000,1481
163.602500,1501
163.603000,1522
163.603500,1539
163.604000,1556
163.604500,1571
163.605000,1597
163.605500,3688
163.606000,3691
163.606500,3688
163.607000,3690
163.607500,3688
163.608000,3688
163.608500,3688
163.609000,3688
163.609500,3691
163.610000,442
163.610500,92
163.611000,200
163.611500,299
163.612000,397
163.612500,485
163.613000,570
163.613500,648
163.614000,719
163.614500,786
163.615000,853
163.615500,913
163.616000,968
163.616500,1018
163.617000,1068
163.617500,1115
163.618000,1158
163.618500,1199
163.619000,1238
163.619500,1273
163.620000,1305
163.620500,1339
163.621000,1367
163.621500,1393
163.622000,1420
163.622500,1444
163.623000,1466
163.623500,1488
163.624000,1507
163.624500,1525
163.625000,1553
163.625500,3667
163.626000,3693
163.626500,3690
163.627000,3692
163.627500,3689
163.628000,3690
163.628500,3689
163.629000,3152
163.629500,304
163.630000,400
163.630500,493
163.631000,576
163.631500,653
163.632000,726
163.632500,796
163.633000,860
163.633500,919
163.634000,976
163.634500,1027
163.635000,1075
163.635500,1123
163.636000,1164
163.636500,1204
163.637000,1241
163.637500,1276
163.638000,1309
163.638500,1341
163.639000,1371
163.639500,1398
163.640000,1424
163.640500,1448
163.641000,1470
163.641500,1489
163.642000,1509
163.642500,1529
163.643000,1544
163.643500,1563
163.644000,1578
163.644500,1590
163.645000,1610
163.645500,3380
163.646000,3691
163.646500,3690
163.647000,3690
163.647500,3690
163.648000,3690
163.648500,3690
163.649000,3690
163.649500,197
163.650000,302
163.650500,399
163.651000,488
163.651500,571
163.652000,649
163.652500,724
163.653000,793
163.653500,855
163.654000,917
163.654500,972
163.655000,1024
163.655500,1076
163.656000,1121
163.656500,1162
163.657000,1203
163.657500,1239
163.658000,1275
163.658500,1308
163.659000,1340
163.659500,1370
163.660000,1398
163.660500,1424
163.661000,1446
163.661500,1468
163.662000,1489
163.662500,1509
163.663000,1527
163.663500,1545
163.664000,1561
163.664500,1576
163.665000,1603
163.665500,2810
163.666000,3692
163.666500,3690
163.667000,3689
163.667500,3689
163.668000,3689
163.668500,3688
163.669000,3688
163.669500,450
163.670000,538
163.670500,621
163.671000,697
163.671500,768
163.672000,832
163.672500,895
163.673000,953
163.673500,1006
163.674000,1058
163.674500,1105
163.675000,1157
163.675500,1191
163.676000,1229
163.676500,1263
163.677000,1298
163.677500,1330
163.678000,1360
163.678500,1389
163.679000,1415
163.679500,1439
163.680000,1462
163.680500,1484
163.681000,1503
163.681500,1525
163.682000,1539
163.682500,1557
163.683000,1571
163.683500,1587
163.684000,1599
163.684500,1612
163.685000,1632
163.685500,2531
163.686000,3693
163.686500,3688
163.687000,3688
163.687500,3689
163.688000,3690
163.688500,3688
163.689000,3689
163.689500,2309
163.690000,374
163.690500,467
163.691000,551
163.691500,631
163.692000,707
163.692500,777
163.693000,841
163.693500,903
163.694000,961
163.694500,1013
163.695000,1067
163.695500,1111
163.696000,1154
163.696500,1193
163.697000,1233
163.697500,1269
163.698000,1302
163.698500,1334
163.699000,1362
163.699500,1391
163.700000,1419
163.700500,1443
163.701000,1465
163.701500,1485
163.702000,1505
163.702500,1523
163.703000,1542
163.703500,1558
163.704000,1573
163.704500,1586
163.705000,1611
163.705500,2470
163.706000,3692
163.706500,3689
163.707000,3688
163.707500,3689
163.708000,3688
163.708500,3690
163.709000,3689
163.709500,3689
163.710000,3696
163.710500,728
163.711000,0
163.711500,12
163.712000,129
163.712500,235
163.713000,335
163.713500,428
163.714000,514
163.714500,595
163.715000,669
163.715500,742
163.716000,808
163.716500,869
163.717000,929
163.717500,983
163.718000,1034
163.718500,1083
163.719000,1128
163.719500,1172
163.720000,1211
163.720500,1249
163.721000,1284
163.721500,1314
163.722000,1345
163.722500,1375
163.723000,1402
163.723500,1427
163.724000,1450
163.724500,1471
163.725000,1503
163.725500,2435
163.726000,3697
163.726500,3692
163.727000,3690
163.727500,3691
163.728000,3690
163.728500,3689
163.729000,3690
163.729500,3688
163.730000,2191
163.730500,0
163.731000,84
163.731500,194
163.732000,297
163.732500,392
163.733000,481
163.733500,564
163.734000,642
163.734500,716
163.735000,786
163.735500,848
163.736000,907
163.736500,962
163.737000,1015
163.737500,1064
163.738000,1110
163.738500,1154
163.739000,1196
163.739500,1236
163.740000,1270
163.740500,1306
163.741000,1335
163.741500,1364
163.742000,1390
163.742500,1416
163.743000,1442
163.743500,1462
163.744000,1486
163.744500,1506
163.745000,1530
163.745500,2355
163.746000,3693
163.746500,3690
163.747000,3689
163.747500,3690
163.748000,3688
163.748500,3690
163.749000,3689
163.749500,2113
163.750000,113
163.750500,222
163.751000,323
163.751500,417
163.752000,507
163.752500,588
163.753000,665
163.753500,738
163.754000,804
163.754500,867
163.755000,930
163.755500,983
163.756000,1033
163.756500,1080
163.757000,1125
163.757500,1168
163.758000,1208
163.758500,1248
163.759000,1282
163.759500,1316
163.760000,1348
163.760500,1375
163.761000,1402
163.761500,1426
163.762000,1441
163.762500,1471
163.763000,1492
163.763500,1513
163.764000,1530
163.764500,1548
163.765000,1573
163.765500,2279
163.766000,3692
163.766500,3689
163.767000,3688
163.767500,3688
163.768000,3688
163.768500,3690
163.769000,3689
163.769500,176
163.770000,279
163.770500,375
163.771000,466
163.771500,550
163.772000,628
163.772500,704
163.773000,776
163.773500,841
163.774000,901
163.774500,958
163.775000,1012
163.775500,1062
163.776000,1108
163.776500,1150
163.777000,1192
163.777500,1230
163.778000,1266
163.778500,1300
163.779000,1331
163.779500,1362
163.780000,1392
163.780500,1418
163.781000,1442
163.781500,1462
163.782000,1484
163.782500,1505
163.783000,1523
163.783500,1540
163.784000,1557
163.784500,1572
163.785000,1592
163.785500,2306
163.786000,3693
163.786500,3689
163.787000,3688
163.787500,3689
163.788000,3688
163.788500,3689
163.789000,3688
163.789500,3395
163.790000,145
163.790500,252
163.791000,351
163.791500,442
163.792000,529
163.792500,610
163.793000,687
163.793500,758
163.794000,823
163.794500,884
163.795000,943
163.795500,998
163.796000,1048
163.796500,1093
163.797000,1140
163.797500,1181
163.798000,1220
163.798500,1255
163.799000,1291
163.799500,1323
163.800000,1353
163.800500,1383
163.801000,1410
163.801500,1433
163.802000,1456
163.802500,1470
163.803000,1498
163.803500,1518
163.804000,1536
163.804500,1553
163.805000,1576
163.805500,2073
163.806000,3693
163.806500,3689
163.807000,3688
163.807500,3689
163.808000,3688
163.808500,3690
163.809000,3689
163.809500,2392
163.810000,101
163.810500,209
163.811000,310
163.811500,407
163.812000,495
163.812500,578
163.813000,656
163.813500,729
163.814000,796
163.814500,859
163.815000,919
163.815500,976
163.816000,1025
163.816500,1073
163.817000,1119
163.817500,1162
163.818000,1204
163.818500,1241
163.819000,1276
163.819500,1310
163.820000,1345
163.820500,1371
163.821000,1398
163.821500,1423
163.822000,1447
163.822500,1469
163.823000,1490
163.823500,1509
163.824000,1529
163.824500,1546
163.825000,1567
163.825500,2010
163.826000,3692
163.826500,3688
163.827000,3691
163.827500,3689
163.828000,3690
163.828500,3690
163.829000,3690
163.829500,193
163.830000,297
163.830500,395
163.831000,484
163.831500,568
163.832000,647
163.832500,719
163.833000,788
163.833500,852
163.834000,910
163.834500,970
163.835000,1022
163.835500,1072
163.836000,1117
163.836500,1160
163.837000,1199
163.837500,1237
163.838000,1273
163.838500,1304
163.839000,1340
163.839500,1367
163.840000,1399
163.840500,1422
163.841000,1445
163.841500,1467
163.842000,1489
163.842500,1509
163.843000,1527
163.843500,1546
163.844000,1559
163.844500,1576
163.845000,1594
163.845500,2130
163.846000,3691
163.846500,3691
163.847000,3689
163.847500,3689
163.848000,3690
163.848500,3689
163.849000,3689
163.849500,1513
163.850000,241
163.850500,340
163.851000,435
163.851500,521
163.852000,603
163.852500,680
163.853000,751
163.853500,817
163.854000,880
163.854500,938
163.855000,993
163.855500,1047
163.856000,1093
163.856500,1136
163.857000,1178
163.857500,1218
163.858000,1254
163.858500,1290
163.859000,1321
163.859500,1351
163.860000,1380
163.860500,1408
163.861000,1432
163.861500,1454
163.862000,1477
163.862500,1499
163.863000,1517
163.863500,1534
163.864000,1552
163.864500,1567
163.865000,1591
163.865500,1993
163.866000,3694
163.866500,3690
163.867000,3690
163.867500,3689
163.868000,3690
163.868500,3690
163.869000,3680
163.869500,436
163.870000,524
163.870500,608
163.871000,683
163.871500,754
163.872000,823
163.872500,885
163.873000,943
163.873500,998
163.874000,1049
163.874500,1097
163.875000,1140
163.875500,1184
163.876000,1223
163.876500,1259
163.877000,1293
163.877500,1323
163.878000,1354
163.878500,1383
163.879000,1410
163.879500,1435
163.880000,1463
163.880500,1480
163.881000,1501
163.881500,1519
163.882000,1537
163.882500,1553
163.883000,1569
163.883500,1585
163.884000,1597
163.884500,1611
163.885000,1627
163.885500,2004
163.886000,3689
163.886500,3690
163.887000,3689
163.887500,3688
163.888000,3690
163.888500,3690
163.889000,3690
163.889500,3690
163.890000,149
163.890500,256
163.891000,356
163.891500,447
163.892000,534
163.892500,614
163.893000,690
163.893500,760
163.894000,827
163.894500,889
163.895000,949
163.895500,1001
163.896000,1050
163.896500,1097
163.897000,1142
163.897500,1183
163.898000,1221
163.898500,1259
163.899000,1293
163.899500,1324
163.900000,1357
163.900500,1386
163.901000,1410
163.901500,1434
163.902000,1459
163.902500,1480
163.903000,1500
163.903500,1520
163.904000,1538
163.904500,1553
163.905000,1580
163.905500,1988
163.906000,3691
163.906500,3691
163.907000,3689
163.907500,3690
163.908000,3689
163.908500,3690
163.909000,3688
163.909500,473
163.910000,348
163.910500,440
163.911000,526
163.911500,608
163.912000,685
163.912500,756
163.913000,817
163.913500,882
163.914000,942
163.914500,997
163.915000,1050
163.915500,1096
163.916000,1140
163.916500,1180
163.917000,1221
163.917500,1255
163.918000,1293
163.918500,1321
163.919000,1354
163.919500,1382
163.920000,1409
163.920500,1438
163.921000,1461
163.921500,1479
163.922000,1498
163.922500,1520
163.923000,1537
163.923500,1551
163.924000,1569
163.924500,1584
163.925000,1597
163.925500,1709
163.926000,3692
163.926500,3690
163.927000,3691
163.927500,3690
163.928000,3689
163.928500,3688
163.929000,3689
163.929500,2557
163.930000,278
163.930500,377
163.931000,469
163.931500,552
163.932000,632
163.932500,708
163.933000,776
163.933500,844
163.934000,903
163.934500,961
163.935000,1013
163.935500,1062
163.936000,1109
163.936500,1152
163.937000,1193
163.937500,1232
163.938000,1268
163.938500,1302
163.939000,1333
163.939500,1364
163.940000,1393
163.940500,1418
163.941000,1442
163.941500,1462
163.942000,1486
163.942500,1506
163.943000,1523
163.943500,1541
163.944000,1558
163.944500,1574
163.945000,1592
163.945500,1849
163.946000,3692
163.946500,3688
163.947000,3689
163.947500,3690
163.948000,3690
163.948500,3689
163.949000,3688
163.949500,3690
163.950000,2081
163.950500,52
163.951000,166
163.951500,270
163.952000,366
163.952500,458
163.953000,545
163.953500,624
163.954000,697
163.954500,770
163.955000,835
163.955500,896
163.956000,950
163.956500,1004
163.957000,1053
163.957500,1101
163.958000,1149
163.958500,1187
163.959000,1226
163.959500,1262
163.960000,1297
163.960500,1329
163.961000,1359
163.961500,1384
163.962000,1412
163.962500,1437
163.963000,1460
163.963500,1482
163.964000,1501
163.964500,1519
163.965000,1541
163.965500,1727
163.966000,3692
163.966500,3690
163.967000,3688
163.967500,3687
163.968000,3689
163.968500,3690
163.969000,3689
163.969500,3688
163.970000,3272
163.970500,0
163.971000,0
163.971500,85
163.972000,192
163.972500,298
163.973000,393
163.973500,481
163.974000,565
163.974500,640
163.975000,718
163.975500,785
163.976000,847
163.976500,905
163.977000,961
163.977500,1015
163.978000,1065
163.978500,1111
163.979000,1156
163.979500,1198
163.980000,1236
163.980500,1271
163.981000,1305
163.981500,1334
163.982000,1365
163.982500,1391
163.983000,1418
163.983500,1441
163.984000,1466
163.984500,1486
163.985000,1507
163.985500,1766
163.986000,3692
163.986500,3690
163.987000,3688
163.987500,3689
163.988000,3688
163.988500,3689
163.989000,3688
163.989500,3689
163.990000,3058
163.990500,0
163.991000,81
163.991500,191
163.992000,293
163.992500,389
163.993000,479
163.993500,563
163.994000,640
163.994500,714
163.995000,781
163.995500,848
163.996000,908
163.996500,962
163.997000,1015
163.997500,1065
163.998000,1110
163.998500,1154
163.999000,1194
163.999500,1233
164.000000,1270
164.000500,1306
164.001000,1338
164.001500,1362
164.002000,1391
164.002500,1417
164.003000,1441
164.003500,1464
164.004000,1486
164.004500,1504
164.005000,1526
164.005500,1749
164.006000,3697
164.006500,3689
164.007000,3689
164.007500,3687
164.008000,3690
164.008500,3687
164.009000,948
164.009500,469
164.010000,559
164.010500,635
164.011000,712
164.011500,780
164.012000,843
164.012500,907
164.013000,964
164.013500,1018
164.014000,1067
164.014500,1114
164.015000,1159
164.015500,1202
164.016000,1236
164.016500,1271
164.017000,1304
164.017500,1336
164.018000,1364
164.018500,1392
164.019000,1418
164.019500,1442
164.020000,1468
164.020500,1489
164.021000,1506
164.021500,1529
164.022000,1543
164.022500,1558
164.023000,1573
164.023500,1589
164.024000,1601
164.024500,1614
164.025000,1628
164.025500,1724
164.026000,3691
164.026500,3688
164.027000,3690
164.027500,3690
164.028000,3689
164.028500,3688
164.029000,3689
164.029500,3690
164.030000,2050
164.030500,131
164.031000,239
164.031500,338
164.032000,431
164.032500,519
164.033000,599
164.033500,676
164.034000,748
164.034500,814
164.035000,881
164.035500,936
164.036000,989
164.036500,1040
164.037000,1088
164.037500,1133
164.038000,1175
164.038500,1214
164.039000,1252
164.039500,1287
164.040000,1323
164.040500,1351
164.041000,1379
164.041500,1406
164.042000,1431
164.042500,1453
164.043000,1477
164.043500,1495
164.044000,1515
164.044500,1534
164.045000,1553
164.045500,1648
164.046000,3692
164.046500,3690
164.047000,3688
164.047500,3689
164.048000,3690
164.048500,3686
164.049000,3690
164.049500,3687
164.050000,3141
164.050500,0
164.051000,118
164.051500,226
164.052000,327
164.052500,420
164.053000,507
164.053500,591
164.054000,666
164.054500,738
164.055000,807
164.055500,869
164.056000,927
164.056500,978
164.057000,1031
164.057500,1082
164.058000,1126
164.058500,1170
164.059000,1208
164.059500,1247
164.060000,1282
164.060500,1316
164.061000,1346
164.061500,1374
164.062000,1402
164.062500,1427
164.063000,1450
164.063500,1472
164.064000,1492
164.064500,1512
164.065000,1534
164.065500,1625
164.066000,3692
164.066500,3689
164.067000,3688
164.067500,3689
164.068000,3690
164.068500,3689
164.069000,3690
164.069500,3689
164.070000,63
164.070500,171
164.071000,276
164.071500,373
164.072000,465
164.072500,548
164.073000,628
164.073500,704
164.074000,772
164.074500,838
164.075000,900
164.075500,956
164.076000,1006
164.076500,1057
164.077000,1108
164.077500,1148
164.078000,1190
164.078500,1228
164.079000,1265
164.079500,1298
164.080000,1331
164.080500,1362
164.081000,1388
164.081500,1414
164.082000,1438
164.082500,1462
164.083000,1481
164.083500,1503
164.084000,1522
164.084500,1539
164.085000,1560
164.085500,1634
164.086000,3690
164.086500,3690
164.087000,3690
164.087500,3688
164.088000,3689
164.088500,3689
164.089000,3689
164.089500,3690
164.090000,3691
164.090500,0
164.091000,85
164.091500,196
164.092000,300
164.092500,395
164.093000,483
164.093500,568
164.094000,644
164.094500,718
164.095000,788
164.095500,851
164.096000,910
164.096500,964
164.097000,1018
164.097500,1068
164.098000,1113
164.098500,1154
164.099000,1199
164.099500,1235
164.100000,1273
164.100500,1307
164.101000,1336
164.101500,1365
164.102000,1392
164.102500,1419
164.103000,1443
164.103500,1466
164.104000,1487
164.104500,1507
164.105000,1527
164.105500,1604
164.106000,3691
164.106500,3690
164.107000,3688
164.107500,3689
164.108000,3688
164.108500,3688
164.109000,3690
164.109500,3688
164.110000,1502
164.110500,187
164.111000,291
164.111500,388
164.112000,478
164.112500,560
164.113000,641
164.113500,715
164.114000,784
164.114500,848
164.115000,910
164.115500,966
164.116000,1018
164.116500,1065
164.117000,1111
164.117500,1154
164.118000,1198
164.118500,1234
164.119000,1270
164.119500,1304
164.120000,1334
164.120500,1370
164.121000,1396
164.121500,1417
164.122000,1442
164.122500,1465
164.123000,1486
164.123500,1506
164.124000,1525
164.124500,1542
164.125000,1565
164.125500,1627
164.126000,3695
164.126500,3690
164.127000,3690
164.127500,3690
164.128000,3689
164.128500,3689
164.129000,3689
164.129500,3688
164.130000,145
164.130500,254
164.131000,344
164.131500,445
164.132000,532
164.132500,614
164.133000,690
164.133500,761
164.134000,826
164.134500,888
164.135000,947
164.135500,1000
164.136000,1050
164.136500,1095
164.137000,1141
164.137500,1183
164.138000,1221
164.138500,1258
164.139000,1292
164.139500,1325
164.140000,1356
164.140500,1384
164.141000,1411
164.141500,1434
164.142000,1456
164.142500,1479
164.143000,1500
164.143500,1518
164.144000,1536
164.144500,1556
164.145000,1568
164.145500,1602
164.146000,3692
164.146500,3690
164.147000,3689
164.147500,3688
164.148000,3690
164.148500,3688
164.149000,3688
164.149500,3689
164.150000,3688
164.150500,1693
164.151000,88
164.151500,197
164.152000,299
164.152500,394
164.153000,485
164.153500,570
164.154000,648
164.154500,721
164.155000,787
164.155500,853
164.156000,913
164.156500,966
164.157000,1018
164.157500,1069
164.158000,1115
164.158500,1159
164.159000,1199
164.159500,1236
164.160000,1271
164.160500,1307
164.161000,1338
164.161500,1366
164.162000,1394
164.162500,1419
164.163000,1443
164.163500,1466
164.164000,1488
164.164500,1508
164.165000,1526
164.165500,1581
164.166000,3690
164.166500,3690
164.167000,3689
164.167500,3689
164.168000,3690
164.168500,3690
164.169000,3689
164.169500,3690
164.170000,130
164.170500,240
164.171000,338
164.171500,431
164.172000,519
164.172500,601
164.173000,683
164.173500,748
164.174000,815
164.174500,878
164.175000,937
164.175500,992
164.176000,1041
164.176500,1088
164.177000,1133
164.177500,1176
164.178000,1214
164.178500,1252
164.179000,1287
164.179500,1320
164.180000,1351
164.180500,1379
164.181000,1407
164.181500,1429
164.182000,1453
164.182500,1476
164.183000,1495
164.183500,1516
164.184000,1535
164.184500,1550
164.185000,1570
164.185500,1610
164.186000,3690
164.186500,3688
164.187000,3688
164.187500,3688
164.188000,3688
164.188500,3690
164.189000,3690
164.189500,3689
164.190000,1826
164.190500,190
164.191000,294
164.191500,391
164.192000,480
164.192500,566
164.193000,645
164.193500,718
164.194000,787
164.194500,851
164.195000,912
164.195500,969
164.196000,1018
164.196500,1066
164.197000,1114
164.197500,1158
164.198000,1197
164.198500,1237
164.199000,1271
164.199500,1306
164.200000,1338
164.200500,1369
164.201000,1395
164.201500,1420
164.202000,1443
164.202500,1466
164.203000,1487
164.203500,1507
164.204000,1526
164.204500,1542
164.205000,1561
164.205500,1595
164.206000,3689
164.206500,3690
164.207000,3689
164.207500,3690
164.208000,3689
164.208500,3690
164.209000,3688
164.209500,3278
164.210000,278
164.210500,377
164.211000,468
164.211500,552
164.212000,633
164.212500,707
164.213000,778
164.213500,844
164.214000,903
164.214500,960
164.215000,1015
164.215500,1064
164.216000,1109
164.216500,1152
164.217000,1194
164.217500,1232
164.218000,1268
164.218500,1302
164.219000,1333
164.219500,1362
164.220000,1393
164.220500,1421
164.221000,1445
164.221500,1464
164.222000,1485
164.222500,1508
164.223000,1524
164.223500,1542
164.224000,1558
164.224500,1573
164.225000,1588
164.225500,1613
164.226000,3688
164.226500,3689
164.227000,3689
164.227500,3690
164.228000,3689
164.228500,3690
164.229000,3690
164.229500,3563
164.230000,254
164.230500,358
164.231000,449
164.231500,536
164.232000,616
164.232500,692
164.233000,767
164.233500,829
164.234000,892
164.234500,949
164.235000,1004
164.235500,1053
164.236000,1101
164.236500,1143
164.237000,1185
164.237500,1225
164.238000,1260
164.238500,1300
164.239000,1328
164.239500,1357
164.240000,1385
164.240500,1412
164.241000,1436
164.241500,1461
164.242000,1480
164.242500,1500
164.243000,1521
164.243500,1538
164.244000,1554
164.244500,1570
164.245000,1586
164.245500,1609
164.246000,3694
164.246500,3690
164.247000,3689
164.247500,3690
164.248000,3689
164.248500,3690
164.249000,3688
164.249500,3689
164.250000,3693
164.250500,1262
164.251000,114
164.251500,223
164.252000,324
164.252500,416
164.253000,505
164.253500,587
164.254000,664
164.254500,736
164.255000,804
164.255500,869
164.256000,928
164.256500,980
164.257000,1031
164.257500,1079
164.258000,1125
164.258500,1168
164.259000,1209
164.259500,1246
164.260000,1283
164.260500,1318
164.261000,1348
164.261500,1374
164.262000,1399
164.262500,1426
164.263000,1450
164.263500,1472
164.264000,1493
164.264500,1512
164.265000,1532
164.265500,1559
164.266000,2714
164.266500,3690
164.267000,3690
164.267500,3687
164.268000,3688
164.268500,3690
164.269000,3690
164.269500,3690
164.270000,3691
164.270500,0
164.271000,77
164.271500,189
164.272000,292
164.272500,388
164.273000,478
164.273500,562
164.274000,641
164.274500,714
164.275000,781
164.275500,847
164.276000,906
164.276500,962
164.277000,1013
164.277500,1064
164.278000,1111
164.278500,1154
164.279000,1196
164.279500,1234
164.280000,1269
164.280500,1304
164.281000,1335
164.281500,1363
164.282000,1391
164.282500,1419
164.283000,1442
164.283500,1464
164.284000,1486
164.284500,1505
164.285000,1527
164.285500,1548
164.286000,3689
164.286500,3689
164.287000,3690
164.287500,3689
164.288000,3690
164.288500,3689
164.289000,3689
164.289500,3689
164.290000,144
164.290500,246
164.291000,346
164.291500,438
164.292000,527
164.292500,608
164.293000,683
164.293500,754
164.294000,820
164.294500,884
164.295000,942
164.295500,995
164.296000,1046
164.296500,1094
164.297000,1138
164.297500,1180
164.298000,1218
164.298500,1256
164.299000,1289
164.299500,1321
164.300000,1356
164.300500,1384
164.301000,1408
164.301500,1432
164.302000,1457
164.302500,1478
164.303000,1498
164.303500,1517
164.304000,1535
164.304500,1552
164.305000,1568
164.305500,1588
164.306000,3688
164.306500,3690
164.307000,3693
164.307500,3688
164.308000,3688
164.308500,3689
164.309000,3690
164.309500,3690
164.310000,3696
164.310500,1923
164.311000,53
164.311500,166
164.312000,272
164.312500,369
164.313000,461
164.313500,544
164.314000,626
164.314500,699
164.315000,771
164.315500,834
164.316000,895
164.316500,950
164.317000,1004
164.317500,1055
164.318000,1101
164.318500,1145
164.319000,1188
164.319500,1226
164.320000,1264
164.320500,1298
164.321000,1329
164.321500,1358
164.322000,1386
164.322500,1411
164.323000,1436
164.323500,1462
164.324000,1482
164.324500,1502
164.325000,1524
164.325500,1550
164.326000,2923
164.326500,3690
164.327000,3690
164.327500,3688
164.328000,3689
164.328500,3689
164.329000,3688
164.329500,3689
164.330000,3688
164.330500,1409
164.331000,13
164.331500,129
164.332000,235
164.332500,334
164.333000,429
164.333500,516
164.334000,598
164.334500,674
164.335000,741
164.335500,812
164.336000,873
164.336500,930
164.337000,984
164.337500,1039
164.338000,1085
164.338500,1131
164.339000,1173
164.339500,1212
164.340000,1251
164.340500,1287
164.341000,1317
164.341500,1348
164.342000,1376
164.342500,1403
164.343000,1427
164.343500,1452
164.344000,1474
164.344500,1494
164.345000,1516
164.345500,1537
164.346000,2535
164.346500,3689
164.347000,3689
164.347500,3688
164.348000,3690
164.348500,3690
164.349000,3690
164.349500,2020
164.350000,315
164.350500,413
164.351000,500
164.351500,579
164.352000,662
164.352500,734
164.353000,802
164.353500,865
164.354000,925
164.354500,982
164.355000,1036
164.355500,1084
164.356000,1126
164.356500,1168
164.357000,1207
164.357500,1246
164.358000,1281
164.358500,1313
164.359000,1346
164.359500,1374
164.360000,1404
164.360500,1428
164.361000,1451
164.361500,1471
164.362000,1493
164.362500,1512
164.363000,1529
164.363500,1547
164.364000,1564
164.364500,1578
164.365000,1592
164.365500,1616
164.366000,2590
164.366500,3690
164.367000,3690
164.367500,3690
164.368000,3688
164.368500,3688
164.369000,3690
164.369500,3690
164.370000,2219
164.370500,181
164.371000,284
164.371500,383
164.372000,475
164.372500,558
164.373000,638
164.373500,712
164.374000,781
164.374500,845
164.375000,906
164.375500,964
164.376000,1015
164.376500,1067
164.377000,1111
164.377500,1155
164.378000,1195
164.378500,1233
164.379000,1269
164.379500,1303
164.380000,1336
164.380500,1369
164.381000,1396
164.381500,1417
164.382000,1440
164.382500,1466
164.383000,1486
164.383500,1506
164.384000,1527
164.384500,1540
164.385000,1559
164.385500,1583
164.386000,2646
164.386500,3688
164.387000,3690
164.387500,3687
164.388000,3688
164.388500,3690
164.389000,3688
164.389500,3690
164.390000,829
164.390500,252
164.391000,353
164.391500,443
164.392000,530
164.392500,612
164.393000,688
164.393500,758
164.394000,825
164.394500,886
164.395000,947
164.395500,1001
164.396000,1051
164.396500,1096
164.397000,1140
164.397500,1181
164.398000,1220
164.398500,1256
164.399000,1294
164.399500,1325
164.400000,1355
164.400500,1385
164.401000,1413
164.401500,1434
164.402000,1458
164.402500,1478
164.403000,1500
164.403500,1515
164.404000,1536
164.404500,1557
164.405000,1571
164.405500,1591
164.406000,2321
164.406500,3689
164.407000,3688
164.407500,3689
164.408000,3690
164.408500,3692
164.409000,3689
164.409500,3690
164.410000,2228
164.410500,228
164.411000,328
164.411500,423
164.412000,512
164.412500,593
164.413000,670
164.413500,742
164.414000,810
164.414500,873
164.415000,934
164.415500,988
164.416000,1038
164.416500,1085
164.417000,1130
164.417500,1172
164.418000,1212
164.418500,1250
164.419000,1284
164.419500,1317
164.420000,1351
164.420500,1378
164.421000,1404
164.421500,1428
164.422000,1452
164.422500,1474
164.423000,1496
164.423500,1514
164.424000,1532
164.424500,1550
164.425000,1567
164.425500,1589
164.426000,2253
164.426500,3689
164.427000,3690
164.427500,3689
164.428000,3688
164.428500,3689
164.429000,3689
164.429500,3690
164.430000,3694
164.430500,51
164.431000,164
164.431500,266
164.432000,366
164.432500,457
164.433000,543
164.433500,624
164.434000,698
164.434500,770
164.435000,833
164.435500,896
164.436000,950
164.436500,1003
164.437000,1054
164.437500,1101
164.438000,1144
164.438500,1186
164.439000,1226
164.439500,1262
164.440000,1300
164.440500,1329
164.441000,1359
164.441500,1386
164.442000,1413
164.442500,1437
164.443000,1461
164.443500,1482
164.444000,1501
164.444500,1520
164.445000,1540
164.445500,1563
164.446000,2105
164.446500,3684
164.447000,3690
164.447500,3689
164.448000,3690
164.448500,3689
164.449000,3689
164.449500,3690
164.450000,3692
164.450500,1581
164.451000,97
164.451500,206
164.452000,310
164.452500,404
164.453000,494
164.453500,576
164.454000,656
164.454500,728
164.455000,796
164.455500,860
164.456000,918
164.456500,972
164.457000,1031
164.457500,1072
164.458000,1120
164.458500,1162
164.459000,1203
164.459500,1242
164.460000,1281
164.460500,1311
164.461000,1342
164.461500,1370
164.462000,1397
164.462500,1423
164.463000,1448
164.463500,1470
164.464000,1490
164.464500,1510
164.465000,1531
164.465500,1554
164.466000,2092
164.466500,3689
164.467000,3690
164.467500,3689
164.468000,3690
164.468500,3689
164.469000,3690
164.469500,2279
164.470000,576
164.470500,657
164.471000,729
164.471500,798
164.472000,861
164.472500,924
164.473000,980
164.473500,1032
164.474000,1081
164.474500,1129
164.475000,1169
164.475500,1211
164.476000,1248
164.476500,1282
164.477000,1314
164.477500,1346
164.478000,1375
164.478500,1401
164.479000,1426
164.479500,1449
164.480000,1477
164.480500,1498
164.481000,1516
164.481500,1530
164.482000,1548
164.482500,1565
164.483000,1580
164.483500,1592
164.484000,1607
164.484500,1620
164.485000,1632
164.485500,1648
164.486000,1916
164.486500,3690
164.487000,3690
164.487500,3688
164.488000,3688
164.488500,3688
164.489000,3690
164.489500,3689
164.490000,3688
164.490500,59
164.491000,169
164.491500,274
164.492000,372
164.492500,463
164.493000,548
164.493500,628
164.494000,703
164.494500,771
164.495000,839
164.495500,900
164.496000,955
164.496500,1007
164.497000,1057
164.497500,1104
164.498000,1148
164.498500,1189
164.499000,1225
164.499500,1266
164.500000,1299
164.500500,1333
164.501000,1362
164.501500,1388
164.502000,1415
164.502500,1437
164.503000,1462
164.503500,1484
164.504000,1503
164.504500,1522
164.505000,1543
164.505500,1564
164.506000,2034
164.506500,3690
164.507000,3690
164.507500,3688
164.508000,3688
164.508500,3689
164.509000,3688
164.509500,3690
164.510000,3692
164.510500,3697
164.511000,0
164.511500,0
164.512000,112
164.512500,221
164.513000,320
164.513500,415
164.514000,503
164.514500,585
164.515000,662
164.515500,734
164.516000,800
164.516500,862
164.517000,921
164.517500,977
164.518000,1028
164.518500,1077
164.519000,1124
164.519500,1166
164.520000,1206
164.520500,1244
164.521000,1280
164.521500,1313
164.522000,1341
164.522500,1372
164.523000,1398
164.523500,1424
164.524000,1448
164.524500,1471
164.525000,1493
164.525500,1514
164.526000,2049
164.526500,3689
164.527000,3689
164.527500,3689
164.528000,3688
164.528500,3689
164.529000,3690
164.529500,3689
164.530000,3004
164.530500,310
164.531000,403
164.531500,495
164.532000,579
164.532500,657
164.533000,729
164.533500,796
164.534000,862
164.534500,921
164.535000,977
164.535500,1031
164.536000,1078
164.536500,1123
164.537000,1166
164.537500,1204
164.538000,1243
164.538500,1279
164.539000,1311
164.539500,1343
164.540000,1375
164.540500,1400
164.541000,1425
164.541500,1443
164.542000,1471
164.542500,1491
164.543000,1512
164.543500,1530
164.544000,1547
164.544500,1562
164.545000,1579
164.545500,1595
164.546000,2093
164.546500,3690
164.547000,3689
164.547500,3688
164.548000,3689
164.548500,3688
164.549000,3688
164.549500,3690
164.550000,2442
164.550500,282
164.551000,381
164.551500,473
164.552000,563
164.552500,636
164.553000,711
164.553500,779
164.554000,845
164.554500,906
164.555000,964
164.555500,1018
164.556000,1066
164.556500,1110
164.557000,1155
164.557500,1195
164.558000,1233
164.558500,1269
164.559000,1303
164.559500,1334
164.560000,1366
164.560500,1393
164.561000,1419
164.561500,1443
164.562000,1464
164.562500,1486
164.563000,1506
164.563500,1524
164.564000,1542
164.564500,1560
164.565000,1575
164.565500,1593
164.566000,2054
164.566500,3690
164.567000,3690
164.567500,3690
164.568000,3686
164.568500,3690
164.569000,3690
164.569500,3692
164.570000,3687
164.570500,135
164.571000,244
164.571500,341
164.572000,434
164.572500,524
164.573000,604
164.573500,680
164.574000,750
164.574500,818
164.575000,883
164.575500,940
164.576000,993
164.576500,1042
164.577000,1090
164.577500,1136
164.578000,1178
164.578500,1217
164.579000,1254
164.579500,1290
164.580000,1322
164.580500,1352
164.581000,1381
164.581500,1406
164.582000,1432
164.582500,1454
164.583000,1476
164.583500,1498
164.584000,1517
164.584500,1534
164.585000,1552
164.585500,1575
164.586000,1701
164.586500,3688
164.587000,3690
164.587500,3688
164.588000,3690
164.588500,3690
164.589000,3695
164.589500,3690
164.590000,3698
164.590500,1794
164.591000,117
164.591500,226
164.592000,327
164.592500,421
164.593000,508
164.593500,592
164.594000,668
164.594500,740
164.595000,811
164.595500,870
164.596000,928
164.596500,983
164.597000,1035
164.597500,1082
164.598000,1132
164.598500,1171
164.599000,1210
164.599500,1247
164.600000,1282
164.600500,1318
164.601000,1346
164.601500,1374
164.602000,1402
164.602500,1427
164.603000,1450
164.603500,1472
164.604000,1494
164.604500,1514
164.605000,1536
164.605500,1556
164.606000,1743
164.606500,3689
164.607000,3690
164.607500,3690
164.608000,3689
164.608500,3688
164.609000,3688
164.609500,3689
164.610000,2723
164.610500,72
164.611000,180
164.611500,284
164.612000,381
164.612500,471
164.613000,557
164.613500,634
164.614000,712
164.614500,779
164.615000,847
164.615500,904
164.616000,959
164.616500,1013
164.617000,1062
164.617500,1107
164.618000,1153
164.618500,1193
164.619000,1232
164.619500,1267
164.620000,1305
164.620500,1334
164.621000,1364
164.621500,1390
164.622000,1417
164.622500,1438
164.623000,1462
164.623500,1486
164.624000,1504
164.624500,1524
164.625000,1546
164.625500,1558
164.626000,1791
164.626500,3689
164.627000,3690
164.627500,3688
164.628000,3689
164.628500,3689
164.629000,3690
164.629500,3689
164.630000,3692
164.630500,2568
164.631000,0
164.631500,74
164.632000,185
164.632500,290
164.633000,384
164.633500,475
164.634000,558
164.634500,637
164.635000,708
164.635500,780
164.636000,846
164.636500,903
164.637000,960
164.637500,1010
164.638000,1062
164.638500,1110
164.639000,1154
164.639500,1194
164.640000,1234
164.640500,1268
164.641000,1303
164.641500,1331
164.642000,1362
164.642500,1391
164.643000,1416
164.643500,1441
164.644000,1463
164.644500,1485
164.645000,1510
164.645500,1527
164.646000,1874
164.646500,3689
164.647000,3688
164.647500,3689
164.648000,3690
164.648500,3690
164.649000,3690
164.649500,3689
164.650000,3697
164.650500,1334
164.651000,36
164.651500,151
164.652000,258
164.652500,357
164.653000,446
164.653500,535
164.654000,614
164.654500,690
164.655000,761
164.655500,826
164.656000,890
164.656500,942
164.657000,999
164.657500,1048
164.658000,1094
164.658500,1139
164.659000,1181
164.659500,1221
164.660000,1258
164.660500,1292
164.661000,1324
164.661500,1354
164.662000,1381
164.662500,1408
164.663000,1432
164.663500,1457
164.664000,1478
164.664500,1498
164.665000,1523
164.665500,1538
164.666000,1765
164.666500,3688
164.667000,3690
164.667500,3682
164.668000,3688
164.668500,3689
164.669000,3681
164.669500,3690
164.670000,3691
164.670500,73
164.671000,183
164.671500,286
164.672000,383
164.672500,474
164.673000,558
164.673500,636
164.674000,710
164.674500,781
164.675000,846
164.675500,906
164.676000,961
164.676500,1013
164.677000,1064
164.677500,1110
164.678000,1154
164.678500,1195
164.679000,1232
164.679500,1269
164.680000,1301
164.680500,1335
164.681000,1364
164.681500,1390
164.682000,1416
164.682500,1441
164.683000,1464
164.683500,1485
164.684000,1506
164.684500,1524
164.685000,1546
164.685500,1560
164.686000,1661
164.686500,3689
164.687000,3689
164.687500,3689
164.688000,3688
164.688500,3690
164.689000,3691
164.689500,3688
164.690000,3688
164.690500,94
164.691000,200
164.691500,304
164.692000,398
164.692500,489
164.693000,572
164.693500,650
164.694000,724
164.694500,791
164.695000,858
164.695500,917
164.696000,971
164.696500,1024
164.697000,1071
164.697500,1119
164.698000,1161
164.698500,1201
164.699000,1239
164.699500,1273
164.700000,1311
164.700500,1333
164.701000,1370
164.701500,1395
164.702000,1422
164.702500,1446
164.703000,1469
164.703500,1490
164.704000,1510
164.704500,1527
164.705000,1545
164.705500,1565
164.706000,1610
164.706500,3688
164.707000,3690
164.707500,3688
164.708000,3690
164.708500,3689
164.709000,3689
164.709500,3688
164.710000,1429
164.710500,366
164.711000,460
164.711500,546
164.712000,627
164.712500,701
164.713000,770
164.713500,837
164.714000,899
164.714500,955
164.715000,1013
164.715500,1061
164.716000,1107
164.716500,1150
164.717000,1188
164.717500,1228
164.718000,1264
164.718500,1300
164.719000,1330
164.719500,1361
164.720000,1392
164.720500,1416
164.721000,1440
164.721500,1462
164.722000,1483
164.722500,1503
164.723000,1522
164.723500,1542
164.724000,1558
164.724500,1571
164.725000,1591
164.725500,1602
164.726000,1627
164.726500,3690
164.727000,3690
164.727500,3690
164.728000,3691
164.728500,3690
164.729000,3687
164.729500,3689
164.730000,3696
164.730500,292
164.731000,385
164.731500,476
164.732000,562
164.732500,641
164.733000,716
164.733500,784
164.734000,851
164.734500,910
164.735000,968
164.735500,1024
164.736000,1068
164.736500,1116
164.737000,1157
164.737500,1199
164.738000,1236
164.738500,1272
164.739000,1308
164.739500,1332
164.740000,1369
164.740500,1398
164.741000,1423
164.741500,1445
164.742000,1466
164.742500,1487
164.743000,1507
164.743500,1525
164.744000,1544
164.744500,1560
164.745000,1575
164.745500,1590
164.746000,1633
164.746500,3689
164.747000,3688
164.747500,3690
164.748000,3690
164.748500,3690
164.749000,3690
164.749500,3690
164.750000,3694
164.750500,3693
164.751000,0
164.751500,43
164.752000,158
164.752500,261
164.753000,360
164.753500,452
164.754000,538
164.754500,618
164.755000,692
164.755500,762
164.756000,829
164.756500,889
164.757000,946
164.757500,999
164.758000,1050
164.758500,1097
164.759000,1141
164.759500,1182
164.760000,1225
164.760500,1259
164.761000,1294
164.761500,1324
164.762000,1355
164.762500,1384
164.763000,1410
164.763500,1436
164.764000,1458
164.764500,1479
164.765000,1500
164.765500,1521
164.766000,1549
164.766500,3689
164.767000,3688
164.767500,3688
164.768000,3689
164.768500,3690
164.769000,3689
164.769500,3690
164.770000,3696
164.770500,35
164.771000,150
164.771500,255
164.772000,354
164.772500,448
164.773000,534
164.773500,615
164.774000,688
164.774500,759
164.775000,826
164.775500,890
164.776000,947
164.776500,997
164.777000,1047
164.777500,1096
164.778000,1141
164.778500,1182
164.779000,1220
164.779500,1258
164.780000,1292
164.780500,1325
164.781000,1356
164.781500,1383
164.782000,1409
164.782500,1435
164.783000,1457
164.783500,1480
164.784000,1498
164.784500,1517
164.785000,1542
164.785500,1554
164.786000,1593
164.786500,3687
164.787000,3693
164.787500,3690
164.788000,3688
164.788500,3690
164.789000,3690
164.789500,3690
164.790000,3699
164.790500,2102
164.791000,54
164.791500,169
164.792000,273
164.792500,372
164.793000,462
164.793500,547
164.794000,627
164.794500,701
164.795000,773
164.795500,836
164.796000,896
164.796500,953
164.797000,1005
164.797500,1058
164.798000,1103
164.798500,1148
164.799000,1188
164.799500,1229
164.800000,1266
164.800500,1299
164.801000,1332
164.801500,1359
164.802000,1386
164.802500,1412
164.803000,1438
164.803500,1460
164.804000,1481
164.804500,1502
164.805000,1522
164.805500,1540
164.806000,1594
164.806500,3690
164.807000,3688
164.807500,3690
164.808000,3690
164.808500,3688
164.809000,3691
164.809500,3689
164.810000,3692
164.810500,106
164.811000,214
164.811500,315
164.812000,410
164.812500,503
164.813000,582
164.813500,662
164.814000,732
164.814500,800
164.815000,864
164.815500,924
164.816000,979
164.816500,1029
164.817000,1076
164.817500,1123
164.818000,1165
164.818500,1207
164.819000,1244
164.819500,1278
164.820000,1315
164.820500,1344
164.821000,1373
164.821500,1400
164.822000,1425
164.822500,1449
164.823000,1471
164.823500,1493
164.824000,1511
164.824500,1530
164.825000,1550
164.825500,1564
164.826000,1611
164.826500,3689
164.827000,3690
164.827500,3688
164.828000,3690
164.828500,3690
164.829000,3690
164.829500,3689
164.830000,2668
164.830500,443
164.831000,537
164.831500,612
164.832000,690
164.832500,761
164.833000,826
164.833500,891
164.834000,949
164.834500,1003
164.835000,1053
164.835500,1102
164.836000,1146
164.836500,1185
164.837000,1223
164.837500,1260
164.838000,1294
164.838500,1328
164.839000,1358
164.839500,1386
164.840000,1416
164.840500,1439
164.841000,1461
164.841500,1486
164.842000,1501
164.842500,1518
164.843000,1539
164.843500,1556
164.844000,1572
164.844500,1586
164.845000,1598
164.845500,1612
164.846000,1655
164.846500,3688
164.847000,3690
164.847500,3689
164.848000,3690
164.848500,3689
164.849000,3688
164.849500,3689
164.850000,3690
164.850500,222
164.851000,322
164.851500,416
164.852000,512
164.852500,589
164.853000,667
164.853500,739
164.854000,805
164.854500,870
164.855000,929
164.855500,986
164.856000,1037
164.856500,1082
164.857000,1128
164.857500,1171
164.858000,1210
164.858500,1248
164.859000,1285
164.859500,1316
164.860000,1347
164.860500,1377
164.861000,1403
164.861500,1427
164.862000,1450
164.862500,1474
164.863000,1494
164.863500,1514
164.864000,1531
164.864500,1549
164.865000,1564
164.865500,1582
164.866000,1600
164.866500,3663
164.867000,3688
164.867500,3688
164.868000,3688
164.868500,3689
164.869000,3688
164.869500,3682
164.870000,3688
164.870500,3691
164.871000,77
164.871500,190
164.872000,292
164.872500,388
164.873000,479
164.873500,562
164.874000,641
164.874500,716
164.875000,785
164.875500,851
164.876000,910
164.876500,964
164.877000,1017
164.877500,1066
164.878000,1112
164.878500,1159
164.879000,1197
164.879500,1236
164.880000,1274
164.880500,1306
164.881000,1336
164.881500,1364
164.882000,1393
164.882500,1420
164.883000,1442
164.883500,1465
164.884000,1487
164.884500,1507
164.885000,1526
164.885500,1546
164.886000,1564
164.886500,3685
164.887000,3690
164.887500,3690
164.888000,3688
164.888500,3690
164.889000,3688
164.889500,3690
164.890000,3692
164.890500,3690
164.891000,0
164.891500,46
164.892000,162
164.892500,265
164.893000,364
164.893500,457
164.894000,540
164.894500,617
164.895000,695
164.895500,767
164.896000,832
164.896500,889
164.897000,947
164.897500,1001
164.898000,1050
164.898500,1099
164.899000,1143
164.899500,1185
164.900000,1225
164.900500,1262
164.901000,1295
164.901500,1325
164.902000,1356
164.902500,1384
164.903000,1410
164.903500,1435
164.904000,1459
164.904500,1481
164.905000,1502
164.905500,1520
164.906000,1552
164.906500,3683
164.907000,3690
164.907500,3688
164.908000,3689
164.908500,3690
164.909000,3690
164.909500,3688
164.910000,3697
164.910500,2282
164.911000,99
164.911500,207
164.912000,309
164.912500,405
164.913000,494
164.913500,577
164.914000,655
164.914500,726
164.915000,795
164.915500,861
164.916000,919
164.916500,973
164.917000,1024
164.917500,1074
164.918000,1120
164.918500,1162
164.919000,1204
164.919500,1241
164.920000,1278
164.920500,1311
164.921000,1350
164.921500,1368
164.922000,1396
164.922500,1422
164.923000,1447
164.923500,1468
164.924000,1490
164.924500,1508
164.925000,1530
164.925500,1546
164.926000,1569
164.926500,3672
164.927000,3690
164.927500,3689
164.928000,3688
164.928500,3689
164.929000,3690
164.929500,3688
164.930000,3692
164.930500,3690
164.931000,768
164.931500,33
164.932000,148
164.932500,254
164.933000,353
164.933500,445
164.934000,530
164.934500,610
164.935000,687
164.935500,756
164.936000,822
164.936500,882
164.937000,940
164.937500,994
164.938000,1045
164.938500,1093
164.939000,1139
164.939500,1179
164.940000,1222
164.940500,1258
164.941000,1290
164.941500,1321
164.942000,1352
164.942500,1380
164.943000,1407
164.943500,1434
164.944000,1454
164.944500,1476
164.945000,1497
164.945500,1519
164.946000,1540
164.946500,3686
164.947000,3689
164.947500,3688
164.948000,3690
164.948500,3689
164.949000,3690
164.949500,3689
164.950000,3696
164.950500,3692
164.951000,1046
164.951500,0
164.952000,95
164.952500,204
164.953000,309
164.953500,401
164.954000,489
164.954500,572
164.955000,654
164.955500,725
164.956000,789
164.956500,852
164.957000,912
164.957500,968
164.958000,1020
164.958500,1070
164.959000,1117
164.959500,1159
164.960000,1201
164.960500,1240
164.961000,1274
164.961500,1306
164.962000,1338
164.962500,1367
164.963000,1394
164.963500,1420
164.964000,1444
164.964500,1466
164.965000,1491
164.965500,1509
164.966000,1538
164.966500,2788
164.967000,3689
164.967500,3688
164.968000,3688
164.968500,3687
164.969000,3688
164.969500,3690
164.970000,3692
164.970500,3696
164.971000,0
164.971500,89
164.972000,202
164.972500,303
164.973000,399
164.973500,487
164.974000,572
164.974500,649
164.975000,727
164.975500,791
164.976000,853
164.976500,911
164.977000,968
164.977500,1020
164.978000,1071
164.978500,1115
164.979000,1158
164.979500,1199
164.980000,1238
164.980500,1273
164.981000,1309
164.981500,1337
164.982000,1365
164.982500,1394
164.983000,1420
164.983500,1444
164.984000,1467
164.984500,1488
164.985000,1509
164.985500,1527
164.986000,1554
164.986500,2594
164.987000,3690
164.987500,3689
164.988000,3689
164.988500,3688
164.989000,3688
164.989500,3690
164.990000,3690
164.990500,2450
164.991000,190
164.991500,293
164.992000,390
164.992500,481
164.993000,565
164.993500,644
164.994000,716
164.994500,787
164.995000,854
164.995500,911
164.996000,966
164.996500,1018
164.997000,1068
164.997500,1114
164.998000,1158
164.998500,1197
164.999000,1236
164.999500,1272
165.000000,1308
165.000500,1339
165.001000,1371
165.001500,1392
165.002000,1418
165.002500,1443
165.003000,1467
165.003500,1487
165.004000,1507
165.004500,1526
165.005000,1546
165.005500,1563
165.006000,1585
165.006500,2571
165.007000,3690
165.007500,3689
165.008000,3690
165.008500,3689
165.009000,3688
165.009500,3689
165.010000,3692
165.010500,2064
165.011000,113
165.011500,220
165.012000,322
165.012500,417
165.013000,505
165.013500,588
165.014000,664
165.014500,737
165.015000,803
165.015500,869
165.016000,926
165.016500,976
165.017000,1032
165.017500,1081
165.018000,1125
165.018500,1169
165.019000,1209
165.019500,1247
165.020000,1282
165.020500,1317
165.021000,1345
165.021500,1373
165.022000,1400
165.022500,1427
165.023000,1451
165.023500,1472
165.024000,1493
165.024500,1512
165.025000,1534
165.025500,1552
165.026000,1572
165.026500,2568
165.027000,3690
165.027500,3688
165.028000,3689
165.028500,3689
165.029000,3689
165.029500,3688
165.030000,3694
165.030500,2622
165.031000,113
165.031500,221
165.032000,322
165.032500,420
165.033000,507
165.033500,589
165.034000,666
165.034500,738
165.035000,809
165.035500,872
165.036000,930
165.036500,982
165.037000,1033
165.037500,1080
165.038000,1127
165.038500,1171
165.039000,1209
165.039500,1248
165.040000,1286
165.040500,1319
165.041000,1348
165.041500,1374
165.042000,1401
165.042500,1427
165.043000,1449
165.043500,1472
165.044000,1493
165.044500,1512
165.045000,1532
165.045500,1550
165.046000,1570
165.046500,2374
165.047000,3690
165.047500,3689
165.048000,3688
165.048500,3689
165.049000,3690
165.049500,3690
165.050000,3696
165.050500,2036
165.051000,46
165.051500,159
165.052000,265
165.052500,362
165.053000,456
165.053500,541
165.054000,622
165.054500,696
165.055000,765
165.055500,834
165.056000,893
165.056500,947
165.057000,1002
165.057500,1053
165.058000,1101
165.058500,1145
165.059000,1185
165.059500,1224
165.060000,1266
165.060500,1297
165.061000,1328
165.061500,1357
165.062000,1385
165.062500,1411
165.063000,1435
165.063500,1459
165.064000,1480
165.064500,1502
165.065000,1522
165.065500,1541
165.066000,1563
165.066500,2304
165.067000,3689
165.067500,3688
165.068000,3688
165.068500,3690
165.069000,3688
165.069500,3690
165.070000,3688
165.070500,3691
165.071000,3692
165.071500,1896
165.072000,0
165.072500,46
165.073000,162
165.073500,265
165.074000,363
165.074500,453
165.075000,541
165.075500,619
165.076000,692
165.076500,762
165.077000,827
165.077500,889
165.078000,946
165.078500,998
165.079000,1051
165.079500,1098
165.080000,1146
165.080500,1184
165.081000,1223
165.081500,1259
165.082000,1293
165.082500,1325
165.083000,1355
165.083500,1383
165.084000,1410
165.084500,1435
165.085000,1459
165.085500,1482
165.086000,1508
165.086500,2442
165.087000,3688
165.087500,3689
165.088000,3689
165.088500,3690
165.089000,3689
165.089500,3690
165.090000,3696
165.090500,3690
165.091000,1019
165.091500,0
165.092000,118
165.092500,225
165.093000,326
165.093500,420
165.094000,507
165.094500,589
165.095000,668
165.095500,738
165.096000,803
165.096500,865
165.097000,925
165.097500,979
165.098000,1031
165.098500,1080
165.099000,1126
165.099500,1168
165.100000,1209
165.100500,1249
165.101000,1282
165.101500,1314
165.102000,1345
165.102500,1374
165.103000,1400
165.103500,1425
165.104000,1450
165.104500,1471
165.105000,1498
165.105500,1513
165.106000,1536
165.106500,2295
165.107000,3691
165.107500,3690
165.108000,3690
165.108500,3689
165.109000,3690
165.109500,3688
165.110000,3696
165.110500,797
165.111000,198
165.111500,301
165.112000,397
165.112500,489
165.113000,574
165.113500,651
165.114000,720
165.114500,792
165.115000,857
165.115500,916
165.116000,971
165.116500,1020
165.117000,1071
165.117500,1118
165.118000,1160
165.118500,1202
165.119000,1239
165.119500,1275
165.120000,1312
165.120500,1340
165.121000,1369
165.121500,1396
165.122000,1421
165.122500,1446
165.123000,1467
165.123500,1488
165.124000,1507
165.124500,1526
165.125000,1545
165.125500,1562
165.126000,1580
165.126500,2096
165.127000,3690
165.127500,3690
165.128000,3690
165.128500,3687
165.129000,3690
165.129500,3688
165.130000,3697
165.130500,3692
165.131000,1324
165.131500,5
165.132000,123
165.132500,232
165.133000,331
165.133500,425
165.134000,515
165.134500,594
165.135000,671
165.135500,742
165.136000,809
165.136500,871
165.137000,928
165.137500,983
165.138000,1034
165.138500,1083
165.139000,1130
165.139500,1171
165.140000,1212
165.140500,1248
165.141000,1283
165.141500,1316
165.142000,1347
165.142500,1375
165.143000,1401
165.143500,1427
165.144000,1452
165.144500,1472
165.145000,1498
165.145500,1513
165.146000,1535
165.146500,1951
165.147000,3690
165.147500,3687
165.148000,3690
165.148500,3689
165.149000,3689
165.149500,3689
165.150000,3691
165.150500,408
165.151000,497
165.151500,581
165.152000,661
165.152500,733
165.153000,802
165.153500,866
165.154000,926
165.154500,982
165.155000,1038
165.155500,1084
165.156000,1128
165.156500,1170
165.157000,1210
165.157500,1247
165.158000,1282
165.158500,1314
165.159000,1346
165.159500,1375
165.160000,1406
165.160500,1429
165.161000,1452
165.161500,1472
165.162000,1494
165.162500,1514
165.163000,1531
165.163500,1548
165.164000,1563
165.164500,1579
165.165000,1594
165.165500,1608
165.166000,1621
165.166500,2266
165.167000,3688
165.167500,3689
165.168000,3689
165.168500,3690
165.169000,3689
165.169500,3689
165.170000,3692
165.170500,3014
165.171000,125
165.171500,234
165.172000,334
165.172500,429
165.173000,516
165.173500,597
165.174000,676
165.174500,745
165.175000,814
165.175500,876
165.176000,934
165.176500,987
165.177000,1038
165.177500,1087
165.178000,1132
165.178500,1174
165.179000,1214
165.179500,1252
165.180000,1290
165.180500,1319
165.181000,1349
165.181500,1378
165.182000,1404
165.182500,1437
165.183000,1452
165.183500,1474
165.184000,1496
165.184500,1516
165.185000,1536
165.185500,1553
165.186000,1571
165.186500,2090
165.187000,3690
165.187500,3688
165.188000,3689
165.188500,3690
165.189000,3690
165.189500,3690
165.190000,3696
165.190500,3691
165.191000,1234
165.191500,176
165.192000,280
165.192500,378
165.193000,469
165.193500,554
165.194000,631
165.194500,706
165.195000,779
165.195500,844
165.196000,905
165.196500,958
165.197000,1010
165.197500,1061
165.198000,1108
165.198500,1151
165.199000,1191
165.199500,1230
165.200000,1271
165.200500,1301
165.201000,1332
165.201500,1362
165.202000,1390
165.202500,1415
165.203000,1440
165.203500,1463
165.204000,1490
165.204500,1504
165.205000,1525
165.205500,1541
165.206000,1561
165.206500,1958
165.207000,3689
165.207500,3688
165.208000,3690
165.208500,3688
165.209000,3690
165.209500,3689
165.210000,3699
165.210500,3692
165.211000,2952
165.211500,240
165.212000,36
165.212500,153
165.213000,256
165.213500,355
165.214000,447
165.214500,532
165.215000,614
165.215500,689
165.216000,758
165.216500,823
165.217000,884
165.217500,942
165.218000,994
165.218500,1047
165.219000,1094
165.219500,1139
165.220000,1181
165.220500,1223
165.221000,1258
165.221500,1290
165.222000,1322
165.222500,1353
165.223000,1373
165.223500,1408
165.224000,1432
165.224500,1458
165.225000,1483
165.225500,1502
165.226000,1524
165.226500,1904
165.227000,3689
165.227500,3690
165.228000,3690
165.228500,3690
165.229000,3688
165.229500,3689
165.230000,3694
165.230500,3692
165.231000,2038
165.231500,0
165.232000,115
165.232500,225
165.233000,326
165.233500,420
165.234000,507
165.234500,590
165.235000,670
165.235500,739
165.236000,805
165.236500,866
165.237000,924
165.237500,980
165.238000,1032
165.238500,1081
165.239000,1125
165.239500,1168
165.240000,1211
165.240500,1247
165.241000,1283
165.241500,1314
165.242000,1343
165.242500,1373
165.243000,1402
165.243500,1426
165.244000,1450
165.244500,1472
165.245000,1493
165.245500,1514
165.246000,1533
165.246500,1787
165.247000,3689
165.247500,3689
165.248000,3688
165.248500,3690
165.249000,3688
165.249500,3690
165.250000,3689
165.250500,3692
165.251000,2099
165.251500,0
165.252000,72
165.252500,184
165.253000,288
165.253500,385
165.254000,473
165.254500,557
165.255000,641
165.255500,711
165.256000,779
165.256500,842
165.257000,904
165.257500,959
165.258000,1012
165.258500,1062
165.259000,1108
165.259500,1152
165.260000,1194
165.260500,1234
165.261000,1270
165.261500,1300
165.262000,1332
165.262500,1363
165.263000,1390
165.263500,1416
165.264000,1440
165.264500,1463
165.265000,1485
165.265500,1505
165.266000,1524
165.266500,1815
165.267000,3689
165.267500,3688
165.268000,3690
165.268500,3689
165.269000,3688
165.269500,3689
165.270000,3689
165.270500,1886
165.271000,159
165.271500,265
165.272000,363
165.272500,454
165.273000,541
165.273500,621
165.274000,696
165.274500,767
165.275000,835
165.275500,894
165.276000,951
165.276500,1003
165.277000,1053
165.277500,1101
165.278000,1144
165.278500,1186
165.279000,1226
165.279500,1262
165.280000,1295
165.280500,1329
165.281000,1358
165.281500,1386
165.282000,1410
165.282500,1436
165.283000,1460
165.283500,1479
165.284000,1500
165.284500,1521
165.285000,1539
165.285500,1558
165.286000,1574
165.286500,1710
165.287000,3689
165.287500,3689
165.288000,3690
165.288500,3689
165.289000,3689
165.289500,3688
165.290000,3698
165.290500,3692
165.291000,2033
165.291500,327
165.292000,421
165.292500,513
165.293000,594
165.293500,672
165.294000,743
165.294500,812
165.295000,876
165.295500,934
165.296000,987
165.296500,1038
165.297000,1086
165.297500,1132
165.298000,1174
165.298500,1214
165.299000,1250
165.299500,1285
165.300000,1319
165.300500,1351
165.301000,1378
165.301500,1404
165.302000,1428
165.302500,1452
165.303000,1475
165.303500,1496
165.304000,1515
165.304500,1530
165.305000,1555
165.305500,1568
165.306000,1579
165.306500,1721
165.307000,3690
165.307500,3690
165.308000,3690
165.308500,3689
165.309000,3688
165.309500,3688
165.310000,3693
165.310500,2334
165.311000,301
165.311500,396
165.312000,488
165.312500,572
165.313000,651
165.313500,724
165.314000,791
165.314500,858
165.315000,917
165.315500,974
165.316000,1026
165.316500,1074
165.317000,1120
165.317500,1163
165.318000,1202
165.318500,1242
165.319000,1277
165.319500,1310
165.320000,1343
165.320500,1373
165.321000,1402
165.321500,1422
165.322000,1446
165.322500,1468
165.323000,1491
165.323500,1511
165.324000,1528
165.324500,1546
165.325000,1563
165.325500,1578
165.326000,1590
165.326500,1708
165.327000,3690
165.327500,3689
165.328000,3690
165.328500,3691
165.329000,3689
165.329500,3689
165.330000,3689
165.330500,3691
165.331000,3691
165.331500,342
165.332000,0
165.332500,87
165.333000,196
165.333500,300
165.334000,393
165.334500,483
165.335000,567
165.335500,645
165.336000,716
165.336500,784
165.337000,847
165.337500,908
165.338000,963
165.338500,1015
165.339000,1067
165.339500,1113
165.340000,1158
165.340500,1198
165.341000,1236
165.341500,1270
165.342000,1304
165.342500,1334
165.343000,1365
165.343500,1393
165.344000,1419
165.344500,1442
165.345000,1467
165.345500,1488
165.346000,1507
165.346500,1647
165.347000,3690
165.347500,3689
165.348000,3687
165.348500,3688
165.349000,3689
165.349500,3690
165.350000,3692
165.350500,343
165.351000,436
165.351500,524
165.352000,607
165.352500,682
165.353000,753
165.353500,822
165.354000,882
165.354500,943
165.355000,997
165.355500,1050
165.356000,1096
165.356500,1140
165.357000,1182
165.357500,1220
165.358000,1258
165.358500,1291
165.359000,1322
165.359500,1354
165.360000,1382
165.360500,1409
165.361000,1435
165.361500,1456
165.362000,1480
165.362500,1498
165.363000,1518
165.363500,1535
165.364000,1554
165.364500,1570
165.365000,1585
165.365500,1600
165.366000,1611
165.366500,1647
165.367000,3689
165.367500,3690
165.368000,3694
165.368500,3688
165.369000,3689
165.369500,3690
165.370000,3695
165.370500,452
165.371000,538
165.371500,619
165.372000,698
165.372500,769
165.373000,835
165.373500,898
165.374000,955
165.374500,1009
165.375000,1060
165.375500,1107
165.376000,1150
165.376500,1191
165.377000,1230
165.377500,1264
165.378000,1300
165.378500,1330
165.379000,1361
165.379500,1390
165.380000,1418
165.380500,1441
165.381000,1462
165.381500,1482
165.382000,1505
165.382500,1522
165.383000,1542
165.383500,1557
165.384000,1572
165.384500,1589
165.385000,1600
165.385500,1616
165.386000,1625
165.386500,1642
165.387000,3688
165.387500,3690
165.388000,3688
165.388500,3690
165.389000,3688
165.389500,3689
165.390000,3695
165.390500,3691
165.391000,532
165.391500,227
165.392000,330
165.392500,424
165.393000,513
165.393500,594
165.394000,672
165.394500,744
165.395000,812
165.395500,876
165.396000,932
165.396500,986
165.397000,1038
165.397500,1086
165.398000,1131
165.398500,1173
165.399000,1214
165.399500,1250
165.400000,1285
165.400500,1319
165.401000,1350
165.401500,1377
165.402000,1404
165.402500,1428
165.403000,1453
165.403500,1476
165.404000,1495
165.404500,1514
165.405000,1534
165.405500,1552
165.406000,1567
165.406500,1596
165.407000,3690
165.407500,3690
165.408000,3687
165.408500,3690
165.409000,3689
165.409500,3688
165.410000,3696
165.410500,3691
165.411000,65
165.411500,176
165.412000,280
165.412500,379
165.413000,470
165.413500,555
165.414000,634
165.414500,713
165.415000,780
165.415500,845
165.416000,906
165.416500,959
165.417000,1014
165.417500,1061
165.418000,1110
165.418500,1151
165.419000,1192
165.419500,1232
165.420000,1267
165.420500,1303
165.421000,1334
165.421500,1360
165.422000,1389
165.422500,1415
165.423000,1440
165.423500,1463
165.424000,1485
165.424500,1506
165.425000,1523
165.425500,1542
165.426000,1558
165.426500,1610
165.427000,3687
165.427500,3690
165.428000,3688
165.428500,3690
165.429000,3689
165.429500,3689
165.430000,3688
165.430500,3692
165.431000,2725
165.431500,114
165.432000,223
165.432500,324
165.433000,420
165.433500,508
165.434000,590
165.434500,667
165.435000,737
165.435500,807
165.436000,869
165.436500,926
165.437000,981
165.437500,1033
165.438000,1082
165.438500,1126
165.439000,1168
165.439500,1211
165.440000,1251
165.440500,1282
165.441000,1315
165.441500,1345
165.442000,1373
165.442500,1400
165.443000,1428
165.443500,1452
165.444000,1473
165.444500,1493
165.445000,1518
165.445500,1534
165.446000,1548
165.446500,1597
165.447000,3687
165.447500,3690
165.448000,3688
165.448500,3688
165.449000,3689
165.449500,3688
165.450000,3692
165.450500,3682
165.451000,2168
165.451500,18
165.452000,134
165.452500,241
165.453000,342
165.453500,435
165.454000,521
165.454500,602
165.455000,681
165.455500,752
165.456000,815
165.456500,876
165.457000,935
165.457500,989
165.458000,1040
165.458500,1089
165.459000,1134
165.459500,1177
165.460000,1214
165.460500,1254
165.461000,1288
165.461500,1318
165.462000,1350
165.462500,1378
165.463000,1407
165.463500,1430
165.464000,1454
165.464500,1476
165.465000,1498
165.465500,1517
165.466000,1534
165.466500,1564
165.467000,3689
165.467500,3689
165.468000,3689
165.468500,3688
165.469000,3688
165.469500,3690
165.470000,3693
165.470500,368
165.471000,449
165.471500,538
165.472000,618
165.472500,693
165.473000,766
165.473500,832
165.474000,894
165.474500,952
165.475000,1007
165.475500,1058
165.476000,1103
165.476500,1147
165.477000,1188
165.477500,1223
165.478000,1262
165.478500,1296
165.479000,1329
165.479500,1359
165.480000,1387
165.480500,1414
165.481000,1438
165.481500,1461
165.482000,1482
165.482500,1503
165.483000,1522
165.483500,1540
165.484000,1556
165.484500,1572
165.485000,1589
165.485500,1600
165.486000,1613
165.486500,1646
165.487000,3688
165.487500,3690
165.488000,3690
165.488500,3690
165.489000,3688
165.489500,3688
165.490000,3689
165.490500,3692
165.491000,3693
165.491500,671
165.492000,100
165.492500,207
165.493000,312
165.493500,406
165.494000,496
165.494500,579
165.495000,664
165.495500,728
165.496000,797
165.496500,859
165.497000,917
165.497500,973
165.498000,1027
165.498500,1075
165.499000,1122
165.499500,1165
165.500000,1204
165.500500,1244
165.501000,1277
165.501500,1312
165.502000,1340
165.502500,1371
165.503000,1396
165.503500,1424
165.504000,1448
165.504500,1470
165.505000,1490
165.505500,1512
165.506000,1530
165.506500,1548
165.507000,3687
165.507500,3690
165.508000,3690
165.508500,3690
165.509000,3691
165.509500,3690
165.510000,3691
165.510500,2550
165.511000,349
165.511500,443
165.512000,530
165.512500,612
165.513000,681
165.513500,759
165.514000,825
165.514500,887
165.515000,949
165.515500,999
165.516000,1053
165.516500,1096
165.517000,1142
165.517500,1184
165.518000,1222
165.518500,1258
165.519000,1294
165.519500,1326
165.520000,1358
165.520500,1388
165.521000,1416
165.521500,1435
165.522000,1458
165.522500,1480
165.523000,1501
165.523500,1520
165.524000,1537
165.524500,1554
165.525000,1577
165.525500,1588
165.526000,1601
165.526500,1616
165.527000,3110
165.527500,3690
165.528000,3688
165.528500,3690
165.529000,3690
165.529500,3689
165.530000,3692
165.530500,3692
165.531000,3692
165.531500,2066
165.532000,0
165.532500,117
165.533000,223
165.533500,326
165.534000,418
165.534500,506
165.535000,590
165.535500,665
165.536000,737
165.536500,802
165.537000,864
165.537500,922
165.538000,978
165.538500,1030
165.539000,1079
165.539500,1125
165.540000,1169
165.540500,1211
165.541000,1247
165.541500,1280
165.542000,1313
165.542500,1343
165.543000,1373
165.543500,1399
165.544000,1426
165.544500,1450
165.545000,1476
165.545500,1494
165.546000,1512
165.546500,1535
165.547000,3690
165.547500,3688
165.548000,3688
165.548500,3688
165.549000,3689
165.549500,3690
165.550000,3693
165.550500,3692
165.551000,3690
165.551500,0
165.552000,55
165.552500,171
165.553000,276
165.553500,372
165.554000,463
165.554500,548
165.555000,628
165.555500,703
165.556000,770
165.556500,835
165.557000,896
165.557500,952
165.558000,1006
165.558500,1056
165.559000,1103
165.559500,1146
165.560000,1198
165.560500,1227
165.561000,1263
165.561500,1298
165.562000,1329
165.562500,1357
165.563000,1386
165.563500,1413
165.564000,1437
165.564500,1461
165.565000,1486
165.565500,1503
165.566000,1520
165.566500,1550
165.567000,3687
165.567500,3691
165.568000,3690
165.568500,3688
165.569000,3690
165.569500,3688
165.570000,3697
165.570500,3691
165.571000,130
165.571500,236
165.572000,338
165.572500,431
165.573000,518
165.573500,600
165.574000,677
165.574500,748
165.575000,816
165.575500,878
165.576000,935
165.576500,990
165.577000,1040
165.577500,1088
165.578000,1134
165.578500,1175
165.579000,1214
165.579500,1253
165.580000,1288
165.580500,1321
165.581000,1350
165.581500,1379
165.582000,1404
165.582500,1430
165.583000,1454
165.583500,1475
165.584000,1497
165.584500,1515
165.585000,1536
165.585500,1551
165.586000,1567
165.586500,1590
165.587000,3434
165.587500,3689
165.588000,3688
165.588500,3689
165.589000,3689
165.589500,3690
165.590000,3692
165.590500,3692
165.591000,3690
165.591500,651
165.592000,80
165.592500,194
165.593000,296
165.593500,392
165.594000,481
165.594500,564
165.595000,648
165.595500,718
165.596000,785
165.596500,849
165.597000,909
165.597500,965
165.598000,1016
165.598500,1065
165.599000,1115
165.599500,1157
165.600000,1197
165.600500,1236
165.601000,1271
165.601500,1303
165.602000,1336
165.602500,1365
165.603000,1392
165.603500,1419
165.604000,1444
165.604500,1467
165.605000,1485
165.605500,1508
165.606000,1525
165.606500,1552
165.607000,3687
165.607500,3690
165.608000,3690
165.608500,3689
165.609000,3689
165.609500,3688
165.610000,3691
165.610500,3696
165.611000,3697
165.611500,2226
165.612000,0
165.612500,0
165.613000,71
165.613500,183
165.614000,285
165.614500,381
165.615000,473
165.615500,556
165.616000,634
165.616500,706
165.617000,774
165.617500,840
165.618000,898
165.618500,955
165.619000,1008
165.619500,1061
165.620000,1108
165.620500,1152
165.621000,1191
165.621500,1229
165.622000,1264
165.622500,1298
165.623000,1330
165.623500,1360
165.624000,1388
165.624500,1415
165.625000,1440
165.625500,1463
165.626000,1484
165.626500,1510
165.627000,3678
165.627500,3693
165.628000,3688
165.628500,3688
165.629000,3690
165.629500,3689
165.630000,3692
165.630500,3692
165.631000,2359
165.631500,0
165.632000,99
165.632500,209
165.633000,310
165.633500,406
165.634000,494
165.634500,576
165.635000,657
165.635500,728
165.636000,793
165.636500,857
165.637000,917
165.637500,971
165.638000,1024
165.638500,1072
165.639000,1118
165.639500,1162
165.640000,1204
165.640500,1242
165.641000,1277
165.641500,1308
165.642000,1340
165.642500,1368
165.643000,1396
165.643500,1422
165.644000,1447
165.644500,1468
165.645000,1491
165.645500,1511
165.646000,1527
165.646500,1550
165.647000,2650
165.647500,3690
165.648000,3690
165.648500,3689
165.649000,3690
165.649500,3689
165.650000,3692
165.650500,544
165.651000,471
165.651500,553
165.652000,634
165.652500,708
165.653000,780
165.653500,846
165.654000,907
165.654500,963
165.655000,1017
165.655500,1069
165.656000,1114
165.656500,1157
165.657000,1197
165.657500,1235
165.658000,1272
165.658500,1304
165.659000,1336
165.659500,1366
165.660000,1394
165.660500,1422
165.661000,1445
165.661500,1466
165.662000,1487
165.662500,1506
165.663000,1526
165.663500,1545
165.664000,1557
165.664500,1573
165.665000,1588
165.665500,1604
165.666000,1614
165.666500,1631
165.667000,3127
165.667500,3689
165.668000,3691
165.668500,3688
165.669000,3689
165.669500,3688
165.670000,3696
165.670500,3692
165.671000,2838
165.671500,190
165.672000,294
165.672500,389
165.673000,481
165.673500,566
165.674000,645
165.674500,719
165.675000,787
165.675500,856
165.676000,914
165.676500,968
165.677000,1019
165.677500,1068
165.678000,1115
165.678500,1158
165.679000,1199
165.679500,1237
165.680000,1273
165.680500,1310
165.681000,1340
165.681500,1365
165.682000,1394
165.682500,1419
165.683000,1444
165.683500,1467
165.684000,1487
165.684500,1508
165.685000,1527
165.685500,1554
165.686000,1560
165.686500,1580
165.687000,2450
165.687500,3688
165.688000,3689
165.688500,3688
165.689000,3689
165.689500,3689
165.690000,3694
165.690500,3691
165.691000,3142
165.691500,79
165.692000,190
165.692500,293
165.693000,391
165.693500,481
165.694000,565
165.694500,644
165.695000,724
165.695500,784
165.696000,851
165.696500,909
165.697000,965
165.697500,1010
165.698000,1069
165.698500,1114
165.699000,1158
165.699500,1198
165.700000,1237
165.700500,1273
165.701000,1306
165.701500,1337
165.702000,1366
165.702500,1393
165.703000,1420
165.703500,1443
165.704000,1466
165.704500,1487
165.705000,1510
165.705500,1528
165.706000,1543
165.706500,1564
165.707000,2306
165.707500,3689
165.708000,3690
165.708500,3690
165.709000,3690
165.709500,3688
165.710000,3688
165.710500,1678
165.711000,618
165.711500,694
165.712000,765
165.712500,832
165.713000,896
165.713500,953
165.714000,1007
165.714500,1058
165.715000,1108
165.715500,1153
165.716000,1192
165.716500,1229
165.717000,1265
165.717500,1299
165.718000,1330
165.718500,1361
165.719000,1390
165.719500,1415
165.720000,1441
165.720500,1464
165.721000,1484
165.721500,1504
165.722000,1524
165.722500,1541
165.723000,1557
165.723500,1572
165.724000,1587
165.724500,1601
165.725000,1614
165.725500,1626
165.726000,1637
165.726500,1650
165.727000,2253
165.727500,3690
165.728000,3689
165.728500,3689
165.729000,3690
165.729500,3688
165.730000,3696
165.730500,3692
165.731000,216
165.731500,309
165.732000,407
165.732500,496
165.733000,582
165.733500,661
165.734000,735
165.734500,800
165.735000,865
165.735500,925
165.736000,978
165.736500,1030
165.737000,1078
165.737500,1125
165.738000,1167
165.738500,1206
165.739000,1244
165.739500,1280
165.740000,1315
165.740500,1348
165.741000,1377
165.741500,1400
165.742000,1425
165.742500,1452
165.743000,1473
165.743500,1492
165.744000,1513
165.744500,1530
165.745000,1553
165.745500,1566
165.746000,1579
165.746500,1595
165.747000,2294
165.747500,3689
165.748000,3690
165.748500,3690
165.749000,3690
165.749500,3689
165.750000,3691
165.750500,3691
165.751000,3692
165.751500,3687
165.752000,0
165.752500,68
165.753000,181
165.753500,284
165.754000,380
165.754500,469
165.755000,556
165.755500,634
165.756000,708
165.756500,775
165.757000,838
165.757500,899
165.758000,956
165.758500,1010
165.759000,1060
165.759500,1106
165.760000,1154
165.760500,1193
165.761000,1231
165.761500,1265
165.762000,1300
165.762500,1331
165.763000,1363
165.763500,1389
165.764000,1415
165.764500,1440
165.765000,1463
165.765500,1485
165.766000,1504
165.766500,1525
165.767000,2054
165.767500,3689
165.768000,3690
165.768500,3690
165.769000,3688
165.769500,3690
165.770000,3687
165.770500,3690
165.771000,3691
165.771500,799
165.772000,14
165.772500,132
165.773000,238
165.773500,339
165.774000,431
165.774500,518
165.775000,601
165.775500,677
165.776000,747
165.776500,811
165.777000,874
165.777500,932
165.778000,986
165.778500,1039
165.779000,1086
165.779500,1133
165.780000,1176
165.780500,1215
165.781000,1252
165.781500,1284
165.782000,1317
165.782500,1348
165.783000,1377
165.783500,1404
165.784000,1430
165.784500,1453
165.785000,1475
165.785500,1498
165.786000,1515
165.786500,1534
165.787000,2016
165.787500,3690
165.788000,3688
165.788500,3690
165.789000,3688
165.789500,3687
165.790000,3690
165.790500,3693
165.791000,3692
165.791500,0
165.792000,52
165.792500,167
165.793000,270
165.793500,368
165.794000,457
165.794500,544
165.795000,623
165.795500,699
165.796000,768
165.796500,831
165.797000,894
165.797500,948
165.798000,1003
165.798500,1054
165.799000,1103
165.799500,1145
165.800000,1186
165.800500,1226
165.801000,1263
165.801500,1295
165.802000,1325
165.802500,1356
165.803000,1386
165.803500,1412
165.804000,1438
165.804500,1461
165.805000,1481
165.805500,1504
165.806000,1520
165.806500,1541
165.807000,1896
165.807500,3689
165.808000,3689
165.808500,3690
165.809000,3691
165.809500,3689
165.810000,3696
165.810500,3693
165.811000,3691
165.811500,1927
165.812000,0
165.812500,109
165.813000,219
165.813500,318
165.814000,413
165.814500,502
165.815000,583
165.815500,660
165.816000,734
165.816500,798
165.817000,862
165.817500,920
165.818000,977
165.818500,1029
165.819000,1077
165.819500,1122
165.820000,1173
165.820500,1208
165.821000,1244
165.821500,1278
165.822000,1312
165.822500,1343
165.823000,1372
165.823500,1398
165.824000,1425
165.824500,1447
165.825000,1475
165.825500,1494
165.826000,1512
165.826500,1535
165.827000,2107
165.827500,3684
165.828000,3690
165.828500,3690
165.829000,3688
165.829500,3689
165.830000,3692
165.830500,3693
165.831000,2425
165.831500,162
165.832000,269
165.832500,367
165.833000,459
165.833500,543
165.834000,624
165.834500,698
165.835000,771
165.835500,838
165.836000,899
165.836500,952
165.837000,1006
165.837500,1056
165.838000,1104
165.838500,1146
165.839000,1190
165.839500,1228
165.840000,1267
165.840500,1299
165.841000,1330
165.841500,1359
165.842000,1386
165.842500,1413
165.843000,1430
165.843500,1461
165.844000,1482
165.844500,1503
165.845000,1524
165.845500,1541
165.846000,1555
165.846500,1577
165.847000,2009
165.847500,3690
165.848000,3690
165.848500,3689
165.849000,3690
165.849500,3690
165.850000,3696
165.850500,3696
165.851000,3697
165.851500,2543
165.852000,0
165.852500,48
165.853000,161
165.853500,267
165.854000,363
165.854500,456
165.855000,541
165.855500,621
165.856000,694
165.856500,762
165.857000,828
165.857500,889
165.858000,947
165.858500,1001
165.859000,1050
165.859500,1099
165.860000,1146
165.860500,1185
165.861000,1224
165.861500,1258
165.862000,1294
165.862500,1326
165.863000,1356
165.863500,1384
165.864000,1409
165.864500,1436
165.865000,1463
165.865500,1482
165.866000,1501
165.866500,1520
165.867000,1976
165.867500,3690
165.868000,3689
165.868500,3689
165.869000,3689
165.869500,3689
165.870000,3687
165.870500,3697
165.871000,2028
165.871500,354
165.872000,447
165.872500,536
165.873000,616
165.873500,692
165.874000,762
165.874500,830
165.875000,892
165.875500,951
165.876000,1004
165.876500,1053
165.877000,1100
165.877500,1143
165.878000,1186
165.878500,1226
165.879000,1260
165.879500,1294
165.880000,1328
165.880500,1359
165.881000,1386
165.881500,1412
165.882000,1437
165.882500,1459
165.883000,1481
165.883500,1502
165.884000,1520
165.884500,1538
165.885000,1558
165.885500,1575
165.886000,1586
165.886500,1600
165.887000,1852
165.887500,3689
165.888000,3690
165.888500,3689
165.889000,3689
165.889500,3690
165.890000,3694
165.890500,3692
165.891000,2340
165.891500,175
165.892000,279
165.892500,378
165.893000,469
165.893500,556
165.894000,634
165.894500,708
165.895000,781
165.895500,844
165.896000,907
165.896500,958
165.897000,1012
165.897500,1062
165.898000,1107
165.898500,1154
165.899000,1193
165.899500,1232
165.900000,1269
165.900500,1300
165.901000,1334
165.901500,1362
165.902000,1390
165.902500,1416
165.903000,1440
165.903500,1462
165.904000,1484
165.904500,1506
165.905000,1524
165.905500,1542
165.906000,1558
165.906500,1574
165.907000,1780
165.907500,3690
165.908000,3688
165.908500,3689
165.909000,3689
165.909500,3690
165.910000,3696
165.910500,3691
165.911000,3696
165.911500,2018
165.912000,17
165.912500,135
165.913000,242
165.913500,338
165.914000,434
165.914500,521
165.915000,605
165.915500,678
165.916000,746
165.916500,814
165.917000,876
165.917500,934
165.918000,989
165.918500,1038
165.919000,1088
165.919500,1134
165.920000,1181
165.920500,1216
165.921000,1254
165.921500,1286
165.922000,1319
165.922500,1350
165.923000,1378
165.923500,1408
165.924000,1429
165.924500,1453
165.925000,1476
165.925500,1497
165.926000,1516
165.926500,1533
165.927000,1730
165.927500,3690
165.928000,3691
165.928500,3689
165.929000,3689
165.929500,3690
165.930000,3696
165.930500,3691
165.931000,3692
165.931500,2552
165.932000,37
165.932500,151
165.933000,259
165.933500,359
165.934000,450
165.934500,536
165.935000,618
165.935500,693
165.936000,763
165.936500,825
165.937000,888
165.937500,944
165.938000,998
165.938500,1049
165.939000,1097
165.939500,1141
165.940000,1182
165.940500,1223
165.941000,1257
165.941500,1293
165.942000,1324
165.942500,1355
165.943000,1384
165.943500,1409
165.944000,1434
165.944500,1458
165.945000,1479
165.945500,1501
165.946000,1519
165.946500,1535
165.947000,1783
165.947500,3689
165.948000,3689
165.948500,3688
165.949000,3689
165.949500,3689
165.950000,3694
165.950500,3691
165.951000,3414
165.951500,96
165.952000,206
165.952500,306
165.953000,405
165.953500,491
165.954000,578
165.954500,656
165.955000,730
165.955500,797
165.956000,858
165.956500,918
165.957000,973
165.957500,1026
165.958000,1075
165.958500,1120
165.959000,1163
165.959500,1205
165.960000,1240
165.960500,1280
165.961000,1310
165.961500,1340
165.962000,1370
165.962500,1397
165.963000,1427
165.963500,1444
165.964000,1470
165.964500,1492
165.965000,1511
165.965500,1531
165.966000,1544
165.966500,1562
165.967000,1734
165.967500,3689
165.968000,3689
165.968500,3689
165.969000,3688
165.969500,3688
165.970000,3696
165.970500,3691
165.971000,3692
165.971500,3688
165.972000,1819
165.972500,0
165.973000,66
165.973500,177
165.974000,281
165.974500,378
165.975000,470
165.975500,555
165.976000,631
165.976500,703
165.977000,772
165.977500,835
165.978000,899
165.978500,956
165.979000,1008
165.979500,1059
165.980000,1110
165.980500,1150
165.981000,1190
165.981500,1229
165.982000,1264
165.982500,1298
165.983000,1330
165.983500,1361
165.984000,1388
165.984500,1414
165.985000,1444
165.985500,1462
165.986000,1483
165.986500,1502
165.987000,1660
165.987500,3689
165.988000,3688
165.988500,3690
165.989000,3690
165.989500,3689
165.990000,3692
165.990500,3691
165.991000,3690
165.991500,10
165.992000,129
165.992500,237
165.993000,336
165.993500,428
165.994000,518
165.994500,601
165.995000,675
165.995500,748
165.996000,810
165.996500,876
165.997000,933
165.997500,987
165.998000,1038
165.998500,1084
165.999000,1131
165.999500,1178
166.000000,1213
166.000500,1252
166.001000,1286
166.001500,1318
166.002000,1348
166.002500,1377
166.003000,1402
166.003500,1428
166.004000,1452
166.004500,1475
166.005000,1496
166.005500,1515
166.006000,1534
166.006500,1549
166.007000,1611
166.007500,3688
166.008000,3688
166.008500,3689
166.009000,3689
166.009500,3690
166.010000,3696
166.010500,3691
166.011000,2506
166.011500,250
166.012000,350
166.012500,444
166.013000,531
166.013500,616
166.014000,687
166.014500,759
166.015000,826
166.015500,889
166.016000,948
166.016500,998
166.017000,1049
166.017500,1097
166.018000,1140
166.018500,1182
166.019000,1221
166.019500,1258
166.020000,1292
166.020500,1328
166.021000,1356
166.021500,1383
166.022000,1410
166.022500,1435
166.023000,1458
166.023500,1478
166.024000,1499
166.024500,1518
166.025000,1539
166.025500,1556
166.026000,1570
166.026500,1583
166.027000,1627
166.027500,3689
166.028000,3688
166.028500,3690
166.029000,3689
166.029500,3688
166.030000,3694
166.030500,3693
166.031000,3692
166.031500,3688
166.032000,7
166.032500,127
166.033000,235
166.033500,336
166.034000,429
166.034500,516
166.035000,599
166.035500,674
166.036000,746
166.036500,811
166.037000,874
166.037500,932
166.038000,986
166.038500,1038
166.039000,1086
166.039500,1132
166.040000,1174
166.040500,1213
166.041000,1251
166.041500,1285
166.042000,1318
166.042500,1348
166.043000,1377
166.043500,1402
166.044000,1428
166.044500,1452
166.045000,1475
166.045500,1497
166.046000,1514
166.046500,1530
166.047000,1616
166.047500,3688
166.048000,3691
166.048500,3689
166.049000,3689
166.049500,3689
166.050000,3687
166.050500,3692
166.051000,304
166.051500,401
166.052000,493
166.052500,578
166.053000,656
166.053500,726
166.054000,797
166.054500,862
166.055000,926
166.055500,978
166.056000,1029
166.056500,1077
166.057000,1123
166.057500,1166
166.058000,1206
166.058500,1244
166.059000,1279
166.059500,1312
166.060000,1344
166.060500,1374
166.061000,1400
166.061500,1424
166.062000,1448
166.062500,1472
166.063000,1490
166.063500,1514
166.064000,1529
166.064500,1549
166.065000,1566
166.065500,1580
166.066000,1593
166.066500,1605
166.067000,1661
166.067500,3687
166.068000,3689
166.068500,3690
166.069000,3689
166.069500,3688
166.070000,3691
166.070500,3690
166.071000,3692
166.071500,3687
166.072000,79
166.072500,191
166.073000,294
166.073500,396
166.074000,480
166.074500,565
166.075000,647
166.075500,718
166.076000,785
166.076500,848
166.077000,910
166.077500,965
166.078000,1016
166.078500,1068
166.079000,1115
166.079500,1157
166.080000,1202
166.080500,1238
166.081000,1272
166.081500,1306
166.082000,1337
166.082500,1366
166.083000,1392
166.083500,1420
166.084000,1435
166.084500,1466
166.085000,1487
166.085500,1508
166.086000,1525
166.086500,1543
166.087000,1577
166.087500,3688
166.088000,3689
166.088500,3690
166.089000,3689
166.089500,3688
166.090000,3690
166.090500,3692
166.091000,3692
166.091500,1796
166.092000,142
166.092500,249
166.093000,350
166.093500,441
166.094000,528
166.094500,611
166.095000,685
166.095500,758
166.096000,821
166.096500,881
166.097000,940
166.097500,995
166.098000,1045
166.098500,1092
166.099000,1138
166.099500,1180
166.100000,1220
166.100500,1257
166.101000,1290
166.101500,1323
166.102000,1351
166.102500,1380
166.103000,1407
166.103500,1432
166.104000,1455
166.104500,1477
166.105000,1500
166.105500,1519
166.106000,1536
166.106500,1552
166.107000,1580
166.107500,3689
166.108000,3689
166.108500,3689
166.109000,3689
166.109500,3689
166.110000,3687
166.110500,3692
166.111000,3692
166.111500,1450
166.112000,145
166.112500,253
166.113000,353
166.113500,446
166.114000,533
166.114500,612
166.115000,691
166.115500,761
166.116000,824
166.116500,886
166.117000,940
166.117500,997
166.118000,1049
166.118500,1094
166.119000,1140
166.119500,1184
166.120000,1222
166.120500,1260
166.121000,1292
166.121500,1324
166.122000,1357
166.122500,1382
166.123000,1409
166.123500,1434
166.124000,1457
166.124500,1481
166.125000,1499
166.125500,1520
166.126000,1538
166.126500,1552
166.127000,1595
166.127500,3689
166.128000,3689
166.128500,3689
166.129000,3689
166.129500,3691
166.130000,3696
166.130500,3691
166.131000,3691
166.131500,3688
166.132000,1518
166.132500,0
166.133000,101
166.133500,209
166.134000,310
166.134500,406
166.135000,494
166.135500,577
166.136000,654
166.136500,726
166.137000,793
166.137500,856
166.138000,915
166.138500,971
166.139000,1023
166.139500,1072
166.140000,1120
166.140500,1165
166.141000,1205
166.141500,1239
166.142000,1275
166.142500,1307
166.143000,1340
166.143500,1369
166.144000,1396
166.144500,1424
166.145000,1444
166.145500,1470
166.146000,1490
166.146500,1508
166.147000,1546
166.147500,3688
166.148000,3690
166.148500,3688
166.149000,3690
166.149500,3689
166.150000,3697
166.150500,3691
166.151000,3692
166.151500,2058
166.152000,28
166.152500,143
166.153000,251
166.153500,350
166.154000,441
166.154500,532
166.155000,609
166.155500,686
166.156000,756
166.156500,820
166.157000,881
166.157500,939
166.158000,994
166.158500,1045
166.159000,1092
166.159500,1137
166.160000,1180
166.160500,1220
166.161000,1256
166.161500,1290
166.162000,1322
166.162500,1352
166.163000,1381
166.163500,1406
166.164000,1431
166.164500,1456
166.165000,1476
166.165500,1498
166.166000,1518
166.166500,1534
166.167000,1568
166.167500,3686
166.168000,3690
166.168500,3690
166.169000,3688
166.169500,3689
166.170000,3692
166.170500,3693
166.171000,3693
166.171500,3688
166.172000,4
166.172500,122
166.173000,230
166.173500,331
166.174000,424
166.174500,512
166.175000,595
166.175500,671
166.176000,740
166.176500,807
166.177000,869
166.177500,929
166.178000,983
166.178500,1035
166.179000,1084
166.179500,1129
166.180000,1175
166.180500,1211
166.181000,1249
166.181500,1282
166.182000,1316
166.182500,1346
166.183000,1376
166.183500,1402
166.184000,1427
166.184500,1453
166.185000,1473
166.185500,1495
166.186000,1511
166.186500,1530
166.187000,1569
166.187500,3228
166.188000,3689
166.188500,3688
166.189000,3689
166.189500,3690
166.190000,3698
166.190500,3692
166.191000,3692
166.191500,3497
166.192000,52
166.192500,167
166.193000,271
166.193500,368
166.194000,461
166.194500,546
166.195000,626
166.195500,703
166.196000,771
166.196500,835
166.197000,895
166.197500,952
166.198000,1005
166.198500,1056
166.199000,1102
166.199500,1147
166.200000,1192
166.200500,1228
166.201000,1264
166.201500,1296
166.202000,1328
166.202500,1359
166.203000,1385
166.203500,1413
166.204000,1437
166.204500,1462
166.205000,1480
166.205500,1504
166.206000,1521
166.206500,1538
166.207000,1558
166.207500,3334
166.208000,3688
166.208500,3689
166.209000,3690
166.209500,3689
166.210000,3694
166.210500,3692
166.211000,3691
166.211500,3688
166.212000,3688
166.212500,0
166.213000,0
166.213500,97
166.214000,206
166.214500,309
166.215000,405
166.215500,492
166.216000,574
166.216500,650
166.217000,723
166.217500,790
166.218000,853
166.218500,912
166.219000,968
166.219500,1022
166.220000,1076
166.220500,1117
166.221000,1160
166.221500,1200
166.222000,1238
166.222500,1273
166.223000,1306
166.223500,1339
166.224000,1367
166.224500,1394
166.225000,1424
166.225500,1446
166.226000,1467
166.226500,1488
166.227000,1514
166.227500,3352
166.228000,3690
166.228500,3689
166.229000,3690
166.229500,3688
166.230000,3688
166.230500,3691
166.231000,3691
166.231500,1507
166.232000,96
166.232500,204
166.233000,308
166.233500,403
166.234000,490
166.234500,574
166.235000,653
166.235500,728
166.236000,794
166.236500,855
166.237000,916
166.237500,972
166.238000,1024
166.238500,1072
166.239000,1119
166.239500,1162
166.240000,1204
166.240500,1244
166.241000,1277
166.241500,1307
166.242000,1338
166.242500,1369
166.243000,1395
166.243500,1422
166.244000,1444
166.244500,1468
166.245000,1492
166.245500,1510
166.246000,1529
166.246500,1544
166.247000,1568
166.247500,3312
166.248000,3689
166.248500,3689
166.249000,3689
166.249500,3690
166.250000,3692
166.250500,3692
166.251000,3695
166.251500,2448
166.252000,41
166.252500,157
166.253000,262
166.253500,361
166.254000,452
166.254500,538
166.255000,620
166.255500,695
166.256000,762
166.256500,831
166.257000,888
166.257500,946
166.258000,1002
166.258500,1051
166.259000,1100
166.259500,1142
166.260000,1183
166.260500,1225
166.261000,1259
166.261500,1294
166.262000,1326
166.262500,1356
166.263000,1382
166.263500,1410
166.264000,1434
166.264500,1459
166.265000,1481
166.265500,1501
166.266000,1520
166.266500,1535
166.267000,1559
166.267500,2578
166.268000,3690
166.268500,3689
166.269000,3689
166.269500,3686
166.270000,3689
166.270500,3692
166.271000,3691
166.271500,156
166.272000,248
166.272500,348
166.273000,443
166.273500,530
166.274000,611
166.274500,686
166.275000,757
166.275500,826
166.276000,887
166.276500,942
166.277000,996
166.277500,1046
166.278000,1094
166.278500,1138
166.279000,1181
166.279500,1221
166.280000,1259
166.280500,1296
166.281000,1326
166.281500,1354
166.282000,1383
166.282500,1408
166.283000,1434
166.283500,1457
166.284000,1477
166.284500,1499
166.285000,1520
166.285500,1536
166.286000,1553
166.286500,1568
166.287000,1586
166.287500,2516
166.288000,3689
166.288500,3688
166.289000,3688
166.289500,3688
166.290000,3696
166.290500,3692
166.291000,3692
166.291500,3690
166.292000,882
166.292500,0
166.293000,105
166.293500,214
166.294000,316
166.294500,410
166.295000,502
166.295500,583
166.296000,658
166.296500,728
166.297000,796
166.297500,860
166.298000,918
166.298500,974
166.299000,1027
166.299500,1074
166.300000,1122
166.300500,1166
166.301000,1204
166.301500,1242
166.302000,1276
166.302500,1310
166.303000,1340
166.303500,1370
166.304000,1397
166.304500,1423
166.305000,1452
166.305500,1473
166.306000,1493
166.306500,1509
166.307000,1533
166.307500,3362
166.308000,3688
166.308500,3690
166.309000,3689
166.309500,3688
166.310000,3688
166.310500,3690
166.311000,3692
166.311500,1938
166.312000,130
166.312500,237
166.313000,339
166.313500,434
166.314000,518
166.314500,602
166.315000,681
166.315500,749
166.316000,816
166.316500,877
166.317000,934
166.317500,990
166.318000,1040
166.318500,1088
166.319000,1133
166.319500,1175
166.320000,1216
166.320500,1252
166.321000,1287
166.321500,1320
166.322000,1339
166.322500,1378
166.323000,1405
166.323500,1431
166.324000,1453
166.324500,1476
166.325000,1496
166.325500,1518
166.326000,1533
166.326500,1550
166.327000,1571
166.327500,3208
166.328000,3690
166.328500,3688
166.329000,3689
166.329500,3688
166.330000,3691
166.330500,3691
166.331000,3691
166.331500,3689
166.332000,2291
166.332500,0
166.333000,110
166.333500,220
166.334000,320
166.334500,414
166.335000,502
166.335500,585
166.336000,662
166.336500,733
166.337000,799
166.337500,862
166.338000,922
166.338500,977
166.339000,1028
166.339500,1078
166.340000,1126
166.340500,1168
166.341000,1207
166.341500,1243
166.342000,1278
166.342500,1311
166.343000,1340
166.343500,1372
166.344000,1399
166.344500,1424
166.345000,1450
166.345500,1473
166.346000,1492
166.346500,1510
166.347000,1533
166.347500,2808
166.348000,3688
166.348500,3688
166.349000,3690
166.349500,3689
166.350000,3691
166.350500,3691
166.351000,3692
166.351500,2376
166.352000,36
166.352500,149
166.353000,257
166.353500,354
166.354000,447
166.354500,534
166.355000,614
166.355500,690
166.356000,760
166.356500,824
166.357000,887
166.357500,943
166.358000,997
166.358500,1048
166.359000,1095
166.359500,1140
166.360000,1184
166.360500,1222
166.361000,1258
166.361500,1292
166.362000,1325
166.362500,1355
166.363000,1381
166.363500,1407
166.364000,1434
166.364500,1457
166.365000,1482
166.365500,1502
166.366000,1518
166.366500,1534
166.367000,1556
166.367500,2283
166.368000,3690
166.368500,3689
166.369000,3688
166.369500,3688
166.370000,3693
166.370500,3692
166.371000,3692
166.371500,104
166.372000,214
166.372500,317
166.373000,411
166.373500,501
166.374000,583
166.374500,661
166.375000,740
166.375500,803
166.376000,865
166.376500,923
166.377000,979
166.377500,1030
166.378000,1078
166.378500,1124
166.379000,1166
166.379500,1206
166.380000,1245
166.380500,1280
166.381000,1314
166.381500,1343
166.382000,1372
166.382500,1399
166.383000,1425
166.383500,1448
166.384000,1471
166.384500,1492
166.385000,1512
166.385500,1531
166.386000,1547
166.386500,1562
166.387000,1581
166.387500,2298
166.388000,3689
166.388500,3689
166.389000,3690
166.389500,3690
166.390000,3688
166.390500,3691
166.391000,3692
166.391500,1345
166.392000,433
166.392500,523
166.393000,604
166.393500,682
166.394000,754
166.394500,821
166.395000,886
166.395500,943
166.396000,996
166.396500,1046
166.397000,1094
166.397500,1140
166.398000,1180
166.398500,1220
166.399000,1256
166.399500,1292
166.400000,1326
166.400500,1355
166.401000,1382
166.401500,1407
166.402000,1434
166.402500,1457
166.403000,1480
166.403500,1499
166.404000,1520
166.404500,1536
166.405000,1553
166.405500,1573
166.406000,1587
166.406500,1596
166.407000,1611
166.407500,2190
166.408000,3689
166.408500,3690
166.409000,3690
166.409500,3690
166.410000,3694
166.410500,3698
166.411000,3698
166.411500,3688
166.412000,128
166.412500,232
166.413000,333
166.413500,427
166.414000,516
166.414500,597
166.415000,675
166.415500,747
166.416000,811
166.416500,875
166.417000,933
166.417500,988
166.418000,1038
166.418500,1087
166.419000,1132
166.419500,1175
166.420000,1218
166.420500,1253
166.421000,1287
166.421500,1318
166.422000,1349
166.422500,1377
166.423000,1403
166.423500,1430
166.424000,1452
166.424500,1475
166.425000,1496
166.425500,1518
166.426000,1533
166.426500,1548
166.427000,1568
166.427500,2159
166.428000,3688
166.428500,3691
166.429000,3689
166.429500,3688
166.430000,3697
166.430500,3692
166.431000,3691
166.431500,3689
166.432000,44
166.432500,151
166.433000,259
166.433500,357
166.434000,449
166.434500,536
166.435000,616
166.435500,695
166.436000,762
166.436500,826
166.437000,887
166.437500,945
166.438000,998
166.438500,1050
166.439000,1096
166.439500,1145
166.440000,1183
166.440500,1223
166.441000,1260
166.441500,1293
166.442000,1325
166.442500,1354
166.443000,1381
166.443500,1410
166.444000,1433
166.444500,1459
166.445000,1483
166.445500,1503
166.446000,1520
166.446500,1536
166.447000,1557
166.447500,2160
166.448000,3690
166.448500,3690
166.449000,3689
166.449500,3690
166.450000,3696
166.450500,3691
166.451000,3693
166.451500,3478
166.452000,52
166.452500,165
166.453000,272
166.453500,369
166.454000,458
166.454500,546
166.455000,627
166.455500,703
166.456000,770
166.456500,836
166.457000,895
166.457500,951
166.458000,1005
166.458500,1054
166.459000,1102
166.459500,1148
166.460000,1189
166.460500,1229
166.461000,1263
166.461500,1297
166.462000,1325
166.462500,1358
166.463000,1387
166.463500,1413
166.464000,1437
166.464500,1461
166.465000,1484
166.465500,1503
166.466000,1522
166.466500,1538
166.467000,1558
166.467500,2118
166.468000,3689
166.468500,3690
166.469000,3690
166.469500,3689
166.470000,3695
166.470500,3689
166.471000,3692
166.471500,804
166.472000,214
166.472500,316
166.473000,412
166.473500,501
166.474000,585
166.474500,662
166.475000,733
166.475500,804
166.476000,865
166.476500,924
166.477000,979
166.477500,1030
166.478000,1079
166.478500,1125
166.479000,1167
166.479500,1207
166.480000,1246
166.480500,1283
166.481000,1314
166.481500,1344
166.482000,1373
166.482500,1400
166.483000,1426
166.483500,1448
166.484000,1472
166.484500,1493
166.485000,1514
166.485500,1533
166.486000,1548
166.486500,1563
166.487000,1584
166.487500,1958
166.488000,3690
166.488500,3690
166.489000,3688
166.489500,3688
166.490000,3692
166.490500,3692
166.491000,3692
166.491500,3688
166.492000,66
166.492500,178
166.493000,283
166.493500,379
166.494000,470
166.494500,556
166.495000,635
166.495500,710
166.496000,778
166.496500,843
166.497000,903
166.497500,959
166.498000,1012
166.498500,1062
166.499000,1110
166.499500,1153
166.500000,1192
166.500500,1233
166.501000,1269
166.501500,1300
166.502000,1332
166.502500,1364
166.503000,1390
166.503500,1417
166.504000,1441
166.504500,1463
166.505000,1486
166.505500,1507
166.506000,1524
166.506500,1540
166.507000,1562
166.507500,1708
166.508000,3689
166.508500,3690
166.509000,3689
166.509500,3690
166.510000,3692
166.510500,3691
166.511000,3692
166.511500,3690
166.512000,1558
166.512500,142
166.513000,249
166.513500,348
166.514000,441
166.514500,527
166.515000,612
166.515500,685
166.516000,756
166.516500,820
166.517000,882
166.517500,940
166.518000,993
166.518500,1044
166.519000,1094
166.519500,1137
166.520000,1183
166.520500,1223
166.521000,1259
166.521500,1290
166.522000,1322
166.522500,1351
166.523000,1381
166.523500,1407
166.524000,1432
166.524500,1456
166.525000,1487
166.525500,1501
166.526000,1518
166.526500,1534
166.527000,1556
166.527500,1853
166.528000,3688
166.528500,3690
166.529000,3690
166.529500,3688
166.530000,3690
166.530500,3691
166.531000,3691
166.531500,271
166.532000,371
166.532500,463
166.533000,550
166.533500,630
166.534000,705
166.534500,774
166.535000,842
166.535500,906
166.536000,961
166.536500,1012
166.537000,1061
166.537500,1108
166.538000,1152
166.538500,1193
166.539000,1230
166.539500,1267
166.540000,1302
166.540500,1333
166.541000,1362
166.541500,1390
166.542000,1414
166.542500,1442
166.543000,1460
166.543500,1485
166.544000,1505
166.544500,1523
166.545000,1541
166.545500,1558
166.546000,1574
166.546500,1586
166.547000,1601
166.547500,1750
166.548000,3689
166.548500,3689
166.549000,3690
166.549500,3690
166.550000,3690
166.550500,3691
166.551000,3691
166.551500,1104
166.552000,360
166.552500,453
166.553000,541
166.553500,624
166.554000,696
166.554500,768
166.555000,839
166.555500,900
166.556000,958
166.556500,1006
166.557000,1057
166.557500,1102
166.558000,1147
166.558500,1189
166.559000,1228
166.559500,1264
166.560000,1300
166.560500,1331
166.561000,1358
166.561500,1386
166.562000,1414
166.562500,1439
166.563000,1461
166.563500,1484
166.564000,1504
166.564500,1522
166.565000,1543
166.565500,1558
166.566000,1572
166.566500,1585
166.567000,1599
166.567500,1773
166.568000,3690
166.568500,3689
166.569000,3689
166.569500,3689
166.570000,3691
166.570500,3692
166.571000,3692
166.571500,3689
166.572000,3689
166.572500,0
166.573000,22
166.573500,140
166.574000,245
166.574500,343
166.575000,438
166.575500,524
166.576000,605
166.576500,678
166.577000,749
166.577500,815
166.578000,878
166.578500,934
166.579000,991
166.579500,1042
166.580000,1091
166.580500,1135
166.581000,1178
166.581500,1216
166.582000,1252
166.582500,1287
166.583000,1319
166.583500,1350
166.584000,1378
166.584500,1406
166.585000,1434
166.585500,1456
166.586000,1476
166.586500,1496
166.587000,1514
166.587500,1730
166.588000,3688
166.588500,3689
166.589000,3688
166.589500,3690
166.590000,3691
166.590500,3692
166.591000,3691
166.591500,3689
166.592000,2676
166.592500,0
166.593000,102
166.593500,212
166.594000,312
166.594500,407
166.595000,497
166.595500,579
166.596000,656
166.596500,727
166.597000,794
166.597500,858
166.598000,918
166.598500,973
166.599000,1025
166.599500,1074
166.600000,1125
166.600500,1165
166.601000,1202
166.601500,1238
166.602000,1277
166.602500,1309
166.603000,1340
166.603500,1368
166.604000,1397
166.604500,1419
166.605000,1448
166.605500,1470
166.606000,1490
166.606500,1508
166.607000,1528
166.607500,1712
166.608000,3688
166.608500,3690
166.609000,3688
166.609500,3688
166.610000,3696
166.610500,3691
166.611000,3692
166.611500,3689
166.612000,18
166.612500,136
166.613000,244
166.613500,344
166.614000,438
166.614500,524
166.615000,609
166.615500,681
166.616000,752
166.616500,817
166.617000,879
166.617500,937
166.618000,991
166.618500,1044
166.619000,1092
166.619500,1135
166.620000,1178
166.620500,1218
166.621000,1254
166.621500,1287
166.622000,1320
166.622500,1351
166.623000,1379
166.623500,1406
166.624000,1432
166.624500,1455
166.625000,1477
166.625500,1499
166.626000,1517
166.626500,1534
166.627000,1550
166.627500,1734
166.628000,3689
166.628500,3690
166.629000,3689
166.629500,3688
166.630000,3696
166.630500,3691
166.631000,3692
166.631500,3688
166.632000,3476
166.632500,3
166.633000,122
166.633500,230
166.634000,331
166.634500,426
166.635000,514
166.635500,594
166.636000,670
166.636500,740
166.637000,808
166.637500,871
166.638000,930
166.638500,983
166.639000,1036
166.639500,1083
166.640000,1134
166.640500,1172
166.641000,1211
166.641500,1248
166.642000,1284
166.642500,1315
166.643000,1346
166.643500,1375
166.644000,1403
166.644500,1428
166.645000,1451
166.645500,1474
166.646000,1493
166.646500,1512
166.647000,1530
166.647500,1655
166.648000,3688
166.648500,3688
166.649000,3689
166.649500,3689
166.650000,3687
166.650500,3696
166.651000,3698
166.651500,3690
166.652000,1462
166.652500,130
166.653000,238
166.653500,338
166.654000,431
166.654500,518
166.655000,601
166.655500,679
166.656000,749
166.656500,813
166.657000,876
166.657500,933
166.658000,990
166.658500,1040
166.659000,1087
166.659500,1133
166.660000,1175
166.660500,1216
166.661000,1251
166.661500,1286
166.662000,1318
166.662500,1350
166.663000,1377
166.663500,1404
166.664000,1428
166.664500,1453
166.665000,1475
166.665500,1501
166.666000,1518
166.666500,1531
166.667000,1549
166.667500,1581
166.668000,3688
166.668500,3689
166.669000,3689
166.669500,3689
166.670000,3693
166.670500,3691
166.671000,3693
166.671500,3690
166.672000,2292
166.672500,114
166.673000,223
166.673500,325
166.674000,419
166.674500,508
166.675000,592
166.675500,668
166.676000,740
166.676500,805
166.677000,866
166.677500,926
166.678000,982
166.678500,1033
166.679000,1082
166.679500,1128
166.680000,1170
166.680500,1212
166.681000,1248
166.681500,1282
166.682000,1316
166.682500,1346
166.683000,1375
166.683500,1401
166.684000,1426
166.684500,1451
166.685000,1476
166.685500,1495
166.686000,1514
166.686500,1530
166.687000,1546
166.687500,1574
166.688000,3688
166.688500,3690
166.689000,3689
166.689500,3689
166.690000,3696
166.690500,3692
166.691000,3691
166.691500,3691
166.692000,3689
166.692500,2817
166.693000,0
166.693500,0
166.694000,78
166.694500,190
166.695000,294
166.695500,391
166.696000,478
166.696500,559
166.697000,637
166.697500,711
166.698000,780
166.698500,844
166.699000,905
166.699500,961
166.700000,1017
166.700500,1065
166.701000,1110
166.701500,1152
166.702000,1194
166.702500,1231
166.703000,1268
166.703500,1302
166.704000,1333
166.704500,1362
166.705000,1390
166.705500,1418
166.706000,1443
166.706500,1463
166.707000,1484
166.707500,1545
166.708000,3688
166.708500,3689
166.709000,3688
166.709500,3689
166.710000,3690
166.710500,3692
166.711000,3692
166.711500,3689
166.712000,62
166.712500,167
166.713000,273
166.713500,371
166.714000,463
166.714500,548
166.715000,630
166.715500,704
166.716000,772
166.716500,836
166.717000,897
166.717500,954
166.718000,1007
166.718500,1058
166.719000,1104
166.719500,1149
166.720000,1192
166.720500,1230
166.721000,1265
166.721500,1297
166.722000,1329
166.722500,1360
166.723000,1387
166.723500,1414
166.724000,1437
166.724500,1462
166.725000,1484
166.725500,1505
166.726000,1522
166.726500,1538
166.727000,1555
166.727500,1618
166.728000,3687
166.728500,3690
166.729000,3690
166.729500,3688
166.730000,3689
166.730500,3691
166.731000,3692
166.731500,3256
166.732000,262
166.732500,362
166.733000,459
166.733500,544
166.734000,622
166.734500,698
166.735000,769
166.735500,836
166.736000,896
166.736500,953
166.737000,1006
166.737500,1056
166.738000,1102
166.738500,1146
166.739000,1189
166.739500,1229
166.740000,1269
166.740500,1299
