# Subject: 
# Trial: 
# Notes: 
# Muscles: Ch1
# fs=2000 Hz, nch=1, vref=3.3 V
t_s,ch1_code
133.645000,1804
133.645500,1794
133.646000,1809
133.646500,1811
133.647000,1791
133.647500,1801
133.648000,1804
133.648500,1791
133.649000,1786
133.649500,1798
133.650000,1802
133.650500,1792
133.651000,1789
133.651500,1802
133.652000,1790
133.652500,1789
133.653000,1796
133.653500,1806
133.654000,1796
133.654500,1793
133.655000,1807
133.655500,1810
133.656000,1791
133.656500,1782
133.657000,1803
133.657500,1798
133.658000,1794
133.658500,1808
133.659000,1812
133.659500,1800
133.660000,1801
133.660500,1817
133.661000,1819
133.661500,1801
133.662000,1815
133.662500,1817
133.663000,1808
133.663500,1802
133.664000,1814
133.664500,1817
133.665000,1807
133.665500,1794
133.666000,1809
133.666500,1797
133.667000,1792
133.667500,1802
133.668000,1804
133.668500,1790
133.669000,1787
133.669500,1800
133.670000,1805
133.670500,1790
133.671000,1800
133.671500,1803
133.672000,1793
133.672500,1790
133.673000,1803
133.673500,1807
133.674000,1793
133.674500,1789
133.675000,1810
133.675500,1804
133.676000,1792
133.676500,1801
133.677000,1806
133.677500,1797
133.678000,1792
133.678500,1809
133.679000,1812
133.679500,1801
133.680000,1829
133.680500,1815
133.681000,1808
133.681500,1800
133.682000,1812
133.682500,1821
133.683000,1805
133.683500,1798
133.684000,1812
133.684500,1797
133.685000,1799
133.685500,1805
133.686000,1812
133.686500,1796
133.687000,1790
133.687500,1804
133.688000,1807
133.688500,1793
133.689000,1803
133.689500,1802
133.690000,1791
133.690500,1791
133.691000,1801
133.691500,1805
133.692000,1792
133.692500,1787
133.693000,1806
133.693500,1792
133.694000,1791
133.694500,1803
133.695000,1810
133.695500,1797
133.696000,1792
133.696500,1802
133.697000,1807
133.697500,1795
133.698000,1800
133.698500,1813
133.699000,1802
133.699500,1801
133.700000,1816
133.700500,1823
133.701000,1806
133.701500,1802
133.702000,1817
133.702500,1805
133.703000,1802
133.703500,1812
133.704000,1816
133.704500,1806
133.705000,1799
133.705500,1812
133.706000,1815
133.706500,1790
133.707000,1790
133.707500,1805
133.708000,1795
133.708500,1788
133.709000,1798
133.709500,1802
133.710000,1792
133.710500,1787
133.711000,1803
133.711500,1789
133.712000,1790
133.712500,1801
133.713000,1803
133.713500,1794
133.714000,1792
133.714500,1807
133.715000,1813
133.715500,1795
133.716000,1788
133.716500,1801
133.717000,1797
133.717500,1792
133.718000,1805
133.718500,1814
133.719000,1802
133.719500,1799
133.720000,1815
133.720500,1822
133.721000,1805
133.721500,1808
133.722000,1816
133.722500,1809
133.723000,1799
133.723500,1812
133.724000,1816
133.724500,1802
133.725000,1802
133.725500,1810
133.726000,1797
133.726500,1793
133.727000,1802
133.727500,1803
133.728000,1791
133.728500,1788
133.729000,1804
133.729500,1808
133.730000,1793
133.730500,1808
133.731000,1806
133.731500,1793
133.732000,1789
133.732500,1802
133.733000,1805
133.733500,1792
133.734000,1790
133.734500,1804
133.735000,1788
133.735500,1796
133.736000,1800
133.736500,1803
133.737000,1794
133.737500,1792
133.738000,1806
133.738500,1815
133.739000,1801
133.739500,1798
133.740000,1817
133.740500,1812
133.741000,1807
133.741500,1811
133.742000,1817
133.742500,1804
133.743000,1804
133.743500,1815
133.744000,1817
133.744500,1802
133.745000,1813
133.745500,1811
133.746000,1800
133.746500,1789
133.747000,1801
133.747500,1807
133.748000,1791
133.748500,1788
133.749000,1803
133.749500,1795
133.750000,1790
133.750500,1801
133.751000,1807
133.751500,1795
133.752000,1789
133.752500,1802
133.753000,1808
133.753500,1791
133.754000,1806
133.754500,1805
133.755000,1802
133.755500,1794
133.756000,1804
133.756500,1805
133.757000,1792
133.757500,1792
133.758000,1806
133.758500,1815
133.759000,1796
133.759500,1812
133.760000,1814
133.760500,1806
133.761000,1802
133.761500,1813
133.762000,1820
133.762500,1806
133.763000,1798
133.763500,1817
133.764000,1809
133.764500,1802
133.765000,1818
133.765500,1813
133.766000,1799
133.766500,1790
133.767000,1804
133.767500,1808
133.768000,1793
133.768500,1808
133.769000,1806
133.769500,1792
133.770000,1786
133.770500,1800
133.771000,1804
133.771500,1790
133.772000,1788
133.772500,1804
133.773000,1788
133.773500,1791
133.774000,1801
133.774500,1808
133.775000,1796
133.775500,1794
133.776000,1803
133.776500,1807
133.777000,1792
133.777500,1790
133.778000,1807
133.778500,1803
133.779000,1798
133.779500,1809
133.780000,1821
133.780500,1806
133.781000,1800
133.781500,1814
133.782000,1820
133.782500,1803
133.783000,1812
133.783500,1815
133.784000,1805
133.784500,1800
133.785000,1817
133.785500,1816
133.786000,1801
133.786500,1790
133.787000,1800
133.787500,1795
133.788000,1790
133.788500,1799
133.789000,1803
133.789500,1791
133.790000,1792
133.790500,1802
133.791000,1805
133.791500,1789
133.792000,1797
133.792500,1802
133.793000,1794
133.793500,1791
133.794000,1802
133.794500,1807
133.795000,1792
133.795500,1791
133.796000,1806
133.796500,1794
133.797000,1790
133.797500,1804
133.798000,1807
133.798500,1801
133.799000,1798
133.799500,1809
133.800000,1817
133.800500,1804
133.801000,1814
133.801500,1818
133.802000,1806
133.802500,1808
133.803000,1814
133.803500,1817
133.804000,1805
133.804500,1799
133.805000,1815
133.805500,1814
133.806000,1796
133.806500,1793
133.807000,1805
133.807500,1792
133.808000,1789
133.808500,1800
133.809000,1804
133.809500,1792
133.810000,1794
133.810500,1804
133.811000,1797
133.811500,1787
133.812000,1796
133.812500,1802
133.813000,1793
133.813500,1791
133.814000,1806
133.814500,1812
133.815000,1797
133.815500,1792
133.816000,1804
133.816500,1793
133.817000,1788
133.817500,1802
133.818000,1808
133.818500,1800
133.819000,1799
133.819500,1813
133.820000,1817
133.820500,1801
133.821000,1803
133.821500,1816
133.822000,1807
133.822500,1801
133.823000,1816
133.823500,1818
133.824000,1804
133.824500,1798
133.825000,1823
133.825500,1805
133.826000,1796
133.826500,1802
133.827000,1806
133.827500,1792
133.828000,1787
133.828500,1799
133.829000,1804
133.829500,1788
133.830000,1792
133.830500,1802
133.831000,1797
133.831500,1791
133.832000,1801
133.832500,1804
133.833000,1791
133.833500,1786
133.834000,1801
133.834500,1809
133.835000,1800
133.835500,1813
133.836000,1810
133.836500,1792
133.837000,1788
133.837500,1805
133.838000,1808
133.838500,1798
133.839000,1793
133.839500,1811
133.840000,1804
133.840500,1801
133.841000,1813
133.841500,1817
133.842000,1803
133.842500,1802
133.843000,1817
133.843500,1824
133.844000,1803
133.844500,1812
133.845000,1819
133.845500,1799
133.846000,1793
133.846500,1803
133.847000,1807
133.847500,1793
133.848000,1786
133.848500,1804
133.849000,1792
133.849500,1788
133.850000,1805
133.850500,1809
133.851000,1797
133.851500,1788
133.852000,1802
133.852500,1790
133.853000,1789
133.853500,1800
133.854000,1809
133.854500,1795
133.855000,1795
133.855500,1810
133.856000,1812
133.856500,1790
133.857000,1801
133.857500,1809
133.858000,1797
133.858500,1797
133.859000,1811
133.859500,1814
133.860000,1802
133.860500,1800
133.861000,1818
133.861500,1820
133.862000,1802
133.862500,1815
133.863000,1817
133.863500,1804
133.864000,1800
133.864500,1814
133.865000,1824
133.865500,1800
133.866000,1794
133.866500,1805
133.867000,1798
133.867500,1790
133.868000,1801
133.868500,1804
133.869000,1790
133.869500,1787
133.870000,1806
133.870500,1807
133.871000,1792
133.871500,1791
133.872000,1804
133.872500,1794
133.873000,1790
133.873500,1805
133.874000,1811
133.874500,1793
133.875000,1792
133.875500,1803
133.876000,1796
133.876500,1787
133.877000,1799
133.877500,1809
133.878000,1796
133.878500,1794
133.879000,1810
133.879500,1815
133.880000,1802
133.880500,1811
133.881000,1819
133.881500,1805
133.882000,1802
133.882500,1817
133.883000,1821
133.883500,1804
133.884000,1799
133.884500,1816
133.885000,1808
133.885500,1798
133.886000,1805
133.886500,1806
133.887000,1794
133.887500,1787
133.888000,1803
133.888500,1806
133.889000,1786
133.889500,1801
133.890000,1807
133.890500,1793
133.891000,1789
133.891500,1803
133.892000,1808
133.892500,1792
133.893000,1788
133.893500,1802
133.894000,1795
133.894500,1791
133.895000,1808
133.895500,1809
133.896000,1793
133.896500,1789
133.897000,1806
133.897500,1809
133.898000,1793
133.898500,1801
133.899000,1814
133.899500,1806
133.900000,1801
133.900500,1812
133.901000,1815
133.901500,1800
133.902000,1798
133.902500,1816
133.903000,1811
133.903500,1803
133.904000,1814
133.904500,1817
133.905000,1807
133.905500,1796
133.906000,1808
133.906500,1809
133.907000,1792
133.907500,1796
133.908000,1803
133.908500,1793
133.909000,1788
133.909500,1799
133.910000,1808
133.910500,1790
133.911000,1784
133.911500,1798
133.912000,1792
133.912500,1788
133.913000,1801
133.913500,1808
133.914000,1796
133.914500,1792
133.915000,1808
133.915500,1812
133.916000,1793
133.916500,1796
133.917000,1804
133.917500,1798
133.918000,1790
133.918500,1810
133.919000,1813
133.919500,1801
133.920000,1800
133.920500,1817
133.921000,1810
133.921500,1801
133.922000,1814
133.922500,1818
133.923000,1806
133.923500,1799
133.924000,1813
133.924500,1820
133.925000,1804
133.925500,1810
133.926000,1811
133.926500,1793
133.927000,1791
133.927500,1803
133.928000,1806
133.928500,1791
133.929000,1782
133.929500,1800
133.930000,1797
133.930500,1790
133.931000,1801
133.931500,1805
133.932000,1793
133.932500,1788
133.933000,1803
133.933500,1811
133.934000,1795
133.934500,1801
133.935000,1810
133.935500,1797
133.936000,1791
133.936500,1801
133.937000,1805
133.937500,1795
133.938000,1790
133.938500,1810
133.939000,1805
133.939500,1800
133.940000,1814
133.940500,1818
133.941000,1806
133.941500,1798
133.942000,1814
133.942500,1817
133.943000,1802
133.943500,1813
133.944000,1815
133.944500,1807
133.945000,1802
133.945500,1808
133.946000,1812
133.946500,1794
133.947000,1788
133.947500,1803
133.948000,1796
133.948500,1788
133.949000,1799
133.949500,1803
133.950000,1792
133.950500,1789
133.951000,1803
133.951500,1806
133.952000,1790
133.952500,1790
133.953000,1803
133.953500,1796
133.954000,1792
133.954500,1804
133.955000,1813
133.955500,1794
133.956000,1789
133.956500,1802
133.957000,1800
133.957500,1796
133.958000,1806
133.958500,1814
133.959000,1800
133.959500,1797
133.960000,1819
133.960500,1821
133.961000,1803
133.961500,1801
133.962000,1816
133.962500,1805
133.963000,1801
133.963500,1811
133.964000,1816
133.964500,1804
133.965000,1798
133.965500,1813
133.966000,1807
133.966500,1790
133.967000,1800
133.967500,1804
133.968000,1791
133.968500,1788
133.969000,1799
133.969500,1805
133.970000,1793
133.970500,1809
133.971000,1806
133.971500,1795
133.972000,1788
133.972500,1800
133.973000,1808
133.973500,1795
133.974000,1790
133.974500,1806
133.975000,1794
133.975500,1793
133.976000,1798
133.976500,1805
133.977000,1792
133.977500,1790
133.978000,1804
133.978500,1815
133.979000,1797
133.979500,1795
133.980000,1816
133.980500,1812
133.981000,1805
133.981500,1811
133.982000,1815
133.982500,1805
133.983000,1800
133.983500,1815
133.984000,1816
133.984500,1804
133.985000,1814
133.985500,1815
133.986000,1804
133.986500,1791
133.987000,1802
133.987500,1805
133.988000,1791
133.988500,1790
133.989000,1805
133.989500,1789
133.990000,1792
133.990500,1796
133.991000,1806
133.991500,1793
133.992000,1787
133.992500,1800
133.993000,1806
133.993500,1792
133.994000,1792
133.994500,1805
133.995000,1799
133.995500,1792
133.996000,1802
133.996500,1806
133.997000,1792
133.997500,1790
133.998000,1806
133.998500,1814
133.999000,1799
133.999500,1805
134.000000,1813
134.000500,1807
134.001000,1801
134.001500,1811
134.002000,1820
134.002500,1806
134.003000,1802
134.003500,1816
134.004000,1805
134.004500,1802
134.005000,1812
134.005500,1812
134.006000,1798
134.006500,1790
134.007000,1803
134.007500,1807
134.008000,1792
134.008500,1786
134.009000,1804
134.009500,1793
134.010000,1789
134.010500,1799
134.011000,1806
134.011500,1792
134.012000,1789
134.012500,1807
134.013000,1807
134.013500,1793
134.014000,1799
134.014500,1808
134.015000,1798
134.015500,1796
134.016000,1805
134.016500,1807
134.017000,1792
134.017500,1787
134.018000,1803
134.018500,1801
134.019000,1795
134.019500,1807
134.020000,1814
134.020500,1805
134.021000,1801
134.021500,1814
134.022000,1818
134.022500,1803
134.023000,1824
134.023500,1813
134.024000,1807
134.024500,1803
134.025000,1810
134.025500,1814
134.026000,1798
134.026500,1789
134.027000,1803
134.027500,1805
134.028000,1789
134.028500,1801
134.029000,1804
134.029500,1792
134.030000,1788
134.030500,1800
134.031000,1810
134.031500,1793
134.032000,1791
134.032500,1803
134.033000,1797
134.033500,1793
134.034000,1804
134.034500,1808
134.035000,1799
134.035500,1792
134.036000,1806
134.036500,1805
134.037000,1793
134.037500,1811
134.038000,1809
134.038500,1804
134.039000,1798
134.039500,1811
134.040000,1817
134.040500,1807
134.041000,1802
134.041500,1816
134.042000,1802
134.042500,1804
134.043000,1812
134.043500,1815
134.044000,1804
134.044500,1801
134.045000,1815
134.045500,1813
134.046000,1794
134.046500,1805
134.047000,1806
134.047500,1794
134.048000,1789
134.048500,1799
134.049000,1803
134.049500,1789
134.050000,1790
134.050500,1802
134.051000,1786
134.051500,1787
134.052000,1797
134.052500,1805
134.053000,1794
134.053500,1791
134.054000,1805
134.054500,1808
134.055000,1799
134.055500,1790
134.056000,1807
134.056500,1793
134.057000,1790
134.057500,1802
134.058000,1809
134.058500,1799
134.059000,1796
134.059500,1813
134.060000,1823
134.060500,1803
134.061000,1816
134.061500,1815
134.062000,1807
134.062500,1804
134.063000,1815
134.063500,1818
134.064000,1800
134.064500,1797
134.065000,1812
134.065500,1806
134.066000,1796
134.066500,1805
134.067000,1807
134.067500,1792
134.068000,1783
134.068500,1799
134.069000,1805
134.069500,1786
134.070000,1809
134.070500,1804
134.071000,1796
134.071500,1788
134.072000,1801
134.072500,1806
134.073000,1792
134.073500,1787
134.074000,1805
134.074500,1804
134.075000,1797
134.075500,1804
134.076000,1806
134.076500,1792
134.077000,1789
134.077500,1804
134.078000,1810
134.078500,1799
134.079000,1796
134.079500,1811
134.080000,1806
134.080500,1802
134.081000,1815
134.081500,1815
134.082000,1805
134.082500,1804
134.083000,1815
134.083500,1819
134.084000,1802
134.084500,1813
134.085000,1814
134.085500,1802
134.086000,1793
134.086500,1802
134.087000,1806
134.087500,1792
134.088000,1786
134.088500,1801
134.089000,1787
134.089500,1785
134.090000,1797
134.090500,1805
134.091000,1793
134.091500,1788
134.092000,1802
134.092500,1805
134.093000,1793
134.093500,1788
134.094000,1806
134.094500,1798
134.095000,1796
134.095500,1807
134.096000,1809
134.096500,1792
134.097000,1788
134.097500,1804
134.098000,1813
134.098500,1798
134.099000,1808
134.099500,1813
134.100000,1806
134.100500,1803
134.101000,1816
134.101500,1819
134.102000,1805
134.102500,1800
134.103000,1815
134.103500,1809
134.104000,1801
134.104500,1814
134.105000,1821
134.105500,1806
134.106000,1797
134.106500,1803
134.107000,1805
134.107500,1792
134.108000,1787
134.108500,1806
134.109000,1794
134.109500,1787
134.110000,1800
134.110500,1810
134.111000,1796
134.111500,1788
134.112000,1803
134.112500,1809
134.113000,1794
134.113500,1801
134.114000,1808
134.114500,1797
134.115000,1793
134.115500,1804
134.116000,1806
134.116500,1790
134.117000,1789
134.117500,1804
134.118000,1803
134.118500,1798
134.119000,1807
134.119500,1816
134.120000,1809
134.120500,1804
134.121000,1819
134.121500,1820
134.122000,1802
134.122500,1805
134.123000,1817
134.123500,1805
134.124000,1799
134.124500,1814
134.125000,1819
134.125500,1800
134.126000,1791
134.126500,1801
134.127000,1795
134.127500,1789
134.128000,1801
134.128500,1806
134.129000,1789
134.129500,1783
134.130000,1802
134.130500,1804
134.131000,1788
134.131500,1794
134.132000,1805
134.132500,1794
134.133000,1788
134.133500,1804
134.134000,1806
134.134500,1796
134.135000,1789
134.135500,1804
134.136000,1798
134.136500,1790
134.137000,1804
134.137500,1811
134.138000,1800
134.138500,1797
134.139000,1812
134.139500,1815
134.140000,1807
134.140500,1802
134.141000,1818
134.141500,1807
134.142000,1801
134.142500,1814
134.143000,1818
134.143500,1804
134.144000,1797
134.144500,1815
134.145000,1804
134.145500,1796
134.146000,1806
134.146500,1806
134.147000,1794
134.147500,1788
134.148000,1802
134.148500,1805
134.149000,1789
134.149500,1807
134.150000,1803
134.150500,1793
134.151000,1790
134.151500,1800
134.152000,1805
134.152500,1795
134.153000,1790
134.153500,1807
134.154000,1790
134.154500,1791
134.155000,1800
134.155500,1805
134.156000,1794
134.156500,1788
134.157000,1802
134.157500,1807
134.158000,1796
134.158500,1794
134.159000,1809
134.159500,1802
134.160000,1804
134.160500,1812
134.161000,1819
134.161500,1801
134.162000,1799
134.162500,1813
134.163000,1821
134.163500,1798
134.164000,1809
134.164500,1816
134.165000,1804
134.165500,1797
134.166000,1807
134.166500,1809
134.167000,1793
134.167500,1788
134.168000,1801
134.168500,1794
134.169000,1788
134.169500,1800
134.170000,1804
134.170500,1793
134.171000,1788
134.171500,1803
134.172000,1806
134.172500,1789
134.173000,1804
134.173500,1806
134.174000,1796
134.174500,1792
134.175000,1812
134.175500,1810
134.176000,1794
134.176500,1784
134.177000,1801
134.177500,1800
134.178000,1793
134.178500,1805
134.179000,1813
134.179500,1800
134.180000,1798
134.180500,1819
134.181000,1819
134.181500,1799
134.182000,1805
134.182500,1817
134.183000,1808
134.183500,1801
134.184000,1811
134.184500,1817
134.185000,1800
134.185500,1793
134.186000,1805
134.186500,1794
134.187000,1789
134.187500,1799
134.188000,1804
134.188500,1793
134.189000,1787
134.189500,1799
134.190000,1813
134.190500,1792
134.191000,1804
134.191500,1804
134.192000,1794
134.192500,1791
134.193000,1802
134.193500,1807
134.194000,1793
134.194500,1810
134.195000,1809
134.195500,1800
134.196000,1792
134.196500,1799
134.197000,1807
134.197500,1798
134.198000,1792
134.198500,1810
134.199000,1798
134.199500,1799
134.200000,1814
134.200500,1817
134.201000,1806
134.201500,1798
134.202000,1817
134.202500,1822
134.203000,1806
134.203500,1824
134.204000,1814
134.204500,1806
134.205000,1800
134.205500,1809
134.206000,1809
134.206500,1792
134.207000,1787
134.207500,1803
134.208000,1797
134.208500,1787
134.209000,1798
134.209500,1805
134.210000,1794
134.210500,1789
134.211000,1802
134.211500,1806
134.212000,1791
134.212500,1791
134.213000,1805
134.213500,1793
134.214000,1789
134.214500,1804
134.215000,1813
134.215500,1795
134.216000,1787
134.216500,1801
134.217000,1800
134.217500,1797
134.218000,1804
134.218500,1814
134.219000,1801
134.219500,1798
134.220000,1812
134.220500,1822
134.221000,1804
134.221500,1814
134.222000,1817
134.222500,1809
134.223000,1803
134.223500,1813
134.224000,1815
134.224500,1802
134.225000,1796
134.225500,1810
134.226000,1799
134.226500,1788
134.227000,1799
134.227500,1803
134.228000,1793
134.228500,1784
134.229000,1800
134.229500,1805
134.230000,1789
134.230500,1804
134.231000,1806
134.231500,1792
134.232000,1789
134.232500,1801
134.233000,1807
134.233500,1792
134.234000,1788
134.234500,1803
134.235000,1800
134.235500,1796
134.236000,1804
134.236500,1803
134.237000,1796
134.237500,1792
134.238000,1807
134.238500,1814
134.239000,1799
134.239500,1800
134.240000,1818
134.240500,1807
134.241000,1802
134.241500,1814
134.242000,1818
134.242500,1805
134.243000,1801
134.243500,1817
134.244000,1808
134.244500,1803
134.245000,1809
134.245500,1813
134.246000,1799
134.246500,1789
134.247000,1804
134.247500,1808
134.248000,1788
134.248500,1797
134.249000,1802
134.249500,1792
134.250000,1788
134.250500,1802
134.251000,1808
134.251500,1791
134.252000,1788
134.252500,1800
134.253000,1796
134.253500,1792
134.254000,1801
134.254500,1809
134.255000,1799
134.255500,1790
134.256000,1803
134.256500,1806
134.257000,1791
134.257500,1805
134.258000,1810
134.258500,1803
134.259000,1797
134.259500,1813
134.260000,1819
134.260500,1808
134.261000,1801
134.261500,1815
134.262000,1811
134.262500,1803
134.263000,1812
134.263500,1815
134.264000,1801
134.264500,1800
134.265000,1809
134.265500,1815
134.266000,1794
134.266500,1790
134.267000,1804
134.267500,1794
134.268000,1786
134.268500,1799
134.269000,1803
134.269500,1790
134.270000,1785
134.270500,1802
134.271000,1796
134.271500,1789
134.272000,1802
134.272500,1807
134.273000,1796
134.273500,1788
134.274000,1801
134.274500,1809
134.275000,1799
134.275500,1805
134.276000,1805
134.276500,1795
134.277000,1791
134.277500,1804
134.278000,1812
134.278500,1802
134.279000,1799
134.279500,1812
134.280000,1812
134.280500,1801
134.281000,1813
134.281500,1815
134.282000,1806
134.282500,1802
134.283000,1817
134.283500,1815
134.284000,1799
134.284500,1825
134.285000,1813
134.285500,1800
134.286000,1794
134.286500,1798
134.287000,1807
134.287500,1792
134.288000,1787
134.288500,1800
134.289000,1791
134.289500,1788
134.290000,1802
134.290500,1806
134.291000,1796
134.291500,1788
134.292000,1803
134.292500,1807
134.293000,1793
134.293500,1808
134.294000,1806
134.294500,1798
134.295000,1795
134.295500,1804
134.296000,1808
134.296500,1792
134.297000,1790
134.297500,1808
134.298000,1795
134.298500,1797
134.299000,1809
134.299500,1814
134.300000,1811
134.300500,1803
134.301000,1816
134.301500,1819
134.302000,1805
134.302500,1800
134.303000,1817
134.303500,1804
134.304000,1799
134.304500,1813
134.305000,1821
134.305500,1800
134.306000,1793
134.306500,1805
134.307000,1799
134.307500,1789
134.308000,1798
134.308500,1802
134.309000,1793
134.309500,1788
134.310000,1807
134.310500,1808
134.311000,1791
134.311500,1800
134.312000,1803
134.312500,1793
134.313000,1789
134.313500,1803
134.314000,1809
134.314500,1794
134.315000,1791
134.315500,1807
134.316000,1790
134.316500,1787
134.317000,1801
134.317500,1808
134.318000,1796
134.318500,1793
134.319000,1809
134.319500,1813
134.320000,1804
134.320500,1816
134.321000,1817
134.321500,1807
134.322000,1804
134.322500,1814
134.323000,1818
134.323500,1804
134.324000,1797
134.324500,1818
134.325000,1802
134.325500,1794
134.326000,1804
134.326500,1805
134.327000,1794
134.327500,1789
134.328000,1802
134.328500,1806
134.329000,1790
134.329500,1804
134.330000,1807
134.330500,1797
134.331000,1790
134.331500,1801
134.332000,1807
134.332500,1793
134.333000,1788
134.333500,1804
134.334000,1789
134.334500,1792
134.335000,1808
134.335500,1807
134.336000,1794
134.336500,1786
134.337000,1804
134.337500,1812
134.338000,1796
134.338500,1820
134.339000,1812
134.339500,1804
134.340000,1804
134.340500,1814
134.341000,1818
134.341500,1804
134.342000,1802
134.342500,1814
134.343000,1810
134.343500,1801
134.344000,1809
134.344500,1818
134.345000,1801
134.345500,1796
134.346000,1805
134.346500,1809
134.347000,1790
134.347500,1796
134.348000,1802
134.348500,1791
134.349000,1786
134.349500,1800
134.350000,1808
134.350500,1792
134.351000,1788
134.351500,1800
134.352000,1796
134.352500,1790
134.353000,1801
134.353500,1806
134.354000,1794
134.354500,1791
134.355000,1807
134.355500,1810
134.356000,1793
134.356500,1790
134.357000,1807
134.357500,1798
134.358000,1795
134.358500,1807
134.359000,1812
134.359500,1801
134.360000,1799
134.360500,1817
134.361000,1806
134.361500,1801
134.362000,1815
134.362500,1818
134.363000,1808
134.363500,1799
134.364000,1809
134.364500,1820
134.365000,1801
134.365500,1806
134.366000,1812
134.366500,1794
134.367000,1789
134.367500,1800
134.368000,1804
134.368500,1792
134.369000,1786
134.369500,1802
134.370000,1800
134.370500,1794
134.371000,1804
134.371500,1801
134.372000,1790
134.372500,1783
134.373000,1800
134.373500,1807
134.374000,1795
134.374500,1812
134.375000,1810
134.375500,1799
134.376000,1793
134.376500,1798
134.377000,1808
134.377500,1797
134.378000,1792
134.378500,1812
134.379000,1796
134.379500,1802
134.380000,1813
134.380500,1820
134.381000,1808
134.381500,1802
134.382000,1815
134.382500,1820
134.383000,1805
134.383500,1797
134.384000,1815
134.384500,1810
134.385000,1797
134.385500,1808
134.386000,1808
134.386500,1793
134.387000,1786
134.387500,1802
134.388000,1805
134.388500,1788
134.389000,1800
134.389500,1803
134.390000,1792
134.390500,1788
134.391000,1803
134.391500,1806
134.392000,1790
134.392500,1790
134.393000,1804
134.393500,1799
134.394000,1792
134.394500,1805
134.395000,1809
134.395500,1794
134.396000,1790
134.396500,1802
134.397000,1792
134.397500,1794
134.398000,1806
134.398500,1813
134.399000,1801
134.399500,1797
134.400000,1812
134.400500,1818
134.401000,1803
134.401500,1825
134.402000,1815
134.402500,1805
134.403000,1806
134.403500,1811
134.404000,1814
134.404500,1806
134.405000,1799
134.405500,1812
134.406000,1795
134.406500,1791
134.407000,1802
134.407500,1805
134.408000,1794
134.408500,1785
134.409000,1802
134.409500,1806
134.410000,1790
134.410500,1813
134.411000,1805
134.411500,1795
134.412000,1792
134.412500,1805
134.413000,1809
134.413500,1794
134.414000,1788
134.414500,1807
134.415000,1798
134.415500,1792
134.416000,1801
134.416500,1804
134.417000,1797
134.417500,1792
134.418000,1808
134.418500,1814
134.419000,1800
134.419500,1819
134.420000,1814
134.420500,1805
134.421000,1799
134.421500,1812
134.422000,1817
134.422500,1805
134.423000,1799
134.423500,1814
134.424000,1807
134.424500,1801
134.425000,1810
134.425500,1813
134.426000,1799
134.426500,1786
134.427000,1803
134.427500,1806
134.428000,1788
134.428500,1788
134.429000,1804
134.429500,1794
134.430000,1792
134.430500,1802
134.431000,1807
134.431500,1791
134.432000,1789
134.432500,1804
134.433000,1793
134.433500,1791
134.434000,1801
134.434500,1805
134.435000,1793
134.435500,1789
134.436000,1804
134.436500,1806
134.437000,1792
134.437500,1795
134.438000,1812
134.438500,1806
134.439000,1799
134.439500,1810
134.440000,1817
134.440500,1808
134.441000,1803
134.441500,1811
134.442000,1817
134.442500,1802
134.443000,1812
134.443500,1814
134.444000,1803
134.444500,1801
134.445000,1816
134.445500,1815
134.446000,1798
134.446500,1788
134.447000,1805
134.447500,1793
134.448000,1788
134.448500,1800
134.449000,1801
134.449500,1790
134.450000,1789
134.450500,1806
134.451000,1787
134.451500,1788
134.452000,1799
134.452500,1805
134.453000,1795
134.453500,1791
134.454000,1804
134.454500,1811
134.455000,1794
134.455500,1810
134.456000,1804
134.456500,1794
134.457000,1791
134.457500,1805
134.458000,1812
134.458500,1799
134.459000,1796
134.459500,1813
134.460000,1802
134.460500,1806
134.461000,1812
134.461500,1817
134.462000,1807
134.462500,1799
134.463000,1814
134.463500,1816
134.464000,1797
134.464500,1826
134.465000,1814
134.465500,1800
134.466000,1794
134.466500,1802
134.467000,1806
134.467500,1793
134.468000,1789
134.468500,1801
134.469000,1785
134.469500,1787
134.470000,1803
134.470500,1805
134.471000,1793
134.471500,1788
134.472000,1800
134.472500,1808
134.473000,1793
134.473500,1809
134.474000,1808
134.474500,1798
134.475000,1795
134.475500,1805
134.476000,1807
134.476500,1794
134.477000,1789
134.477500,1807
134.478000,1794
134.478500,1795
134.479000,1805
134.479500,1813
134.480000,1806
134.480500,1801
134.481000,1816
134.481500,1817
134.482000,1806
134.482500,1801
134.483000,1817
134.483500,1806
134.484000,1801
134.484500,1813
134.485000,1816
134.485500,1799
134.486000,1792
134.486500,1804
134.487000,1806
134.487500,1791
134.488000,1786
134.488500,1801
134.489000,1793
134.489500,1788
134.490000,1805
134.490500,1810
134.491000,1796
134.491500,1786
134.492000,1804
134.492500,1798
134.493000,1792
134.493500,1803
134.494000,1807
134.494500,1796
134.495000,1793
134.495500,1809
134.496000,1813
134.496500,1792
134.497000,1811
134.497500,1807
134.498000,1803
134.498500,1798
134.499000,1810
134.499500,1815
134.500000,1802
134.500500,1800
134.501000,1817
134.501500,1803
134.502000,1804
134.502500,1814
134.503000,1817
134.503500,1803
134.504000,1799
134.504500,1815
134.505000,1820
134.505500,1797
134.506000,1789
134.506500,1802
134.507000,1794
134.507500,1790
134.508000,1799
134.508500,1804
134.509000,1793
134.509500,1789
134.510000,1803
134.510500,1810
134.511000,1793
134.511500,1792
134.512000,1805
134.512500,1797
134.513000,1787
134.513500,1802
134.514000,1806
134.514500,1792
134.515000,1792
134.515500,1808
134.516000,1800
134.516500,1788
134.517000,1801
134.517500,1808
134.518000,1798
134.518500,1799
134.519000,1812
134.519500,1819
134.520000,1808
134.520500,1812
134.521000,1818
134.521500,1809
134.522000,1802
134.522500,1813
134.523000,1818
134.523500,1802
134.524000,1797
134.524500,1815
134.525000,1802
134.525500,1795
134.526000,1801
134.526500,1805
134.527000,1793
134.527500,1788
134.528000,1802
134.528500,1806
134.529000,1788
134.529500,1804
134.530000,1807
134.530500,1795
134.531000,1789
134.531500,1800
134.532000,1802
134.532500,1790
134.533000,1789
134.533500,1806
134.534000,1786
134.534500,1789
134.535000,1800
134.535500,1803
134.536000,1793
134.536500,1785
134.537000,1800
134.537500,1808
134.538000,1796
134.538500,1794
134.539000,1811
134.539500,1807
134.540000,1805
134.540500,1814
134.541000,1819
134.541500,1807
134.542000,1804
134.542500,1818
134.543000,1823
134.543500,1803
134.544000,1801
134.544500,1818
134.545000,1806
134.545500,1798
134.546000,1807
134.546500,1808
134.547000,1791
134.547500,1781
134.548000,1796
134.548500,1777
134.549000,1782
134.549500,1790
134.550000,1805
134.550500,1788
134.551000,1786
134.551500,1800
134.552000,1805
134.552500,1795
134.553000,1792
134.553500,1812
134.554000,1805
134.554500,1798
134.555000,1808
134.555500,1817
134.556000,1801
134.556500,1787
134.557000,1807
134.557500,1807
134.558000,1794
134.558500,1810
134.559000,1811
134.559500,1803
134.560000,1799
134.560500,1814
134.561000,1820
134.561500,1800
134.562000,1798
134.562500,1813
134.563000,1805
134.563500,1800
134.564000,1810
134.564500,1817
134.565000,1803
134.565500,1794
134.566000,1806
134.566500,1807
134.567000,1791
134.567500,1792
134.568000,1803
134.568500,1794
134.569000,1787
134.569500,1796
134.570000,1807
134.570500,1791
134.571000,1788
134.571500,1803
134.572000,1791
134.572500,1790
134.573000,1801
134.573500,1808
134.574000,1794
134.574500,1790
134.575000,1809
134.575500,1806
134.576000,1789
134.576500,1781
134.577000,1805
134.577500,1798
134.578000,1793
134.578500,1806
134.579000,1814
134.579500,1802
134.580000,1800
134.580500,1817
134.581000,1821
134.581500,1800
134.582000,1810
134.582500,1817
134.583000,1803
134.583500,1800
134.584000,1812
134.584500,1817
134.585000,1802
134.585500,1791
134.586000,1805
134.586500,1796
134.587000,1789
134.587500,1801
134.588000,1805
134.588500,1789
134.589000,1785
134.589500,1801
134.590000,1808
134.590500,1790
134.591000,1807
134.591500,1801
134.592000,1794
134.592500,1788
134.593000,1797
134.593500,1801
134.594000,1788
134.594500,1783
134.595000,1799
134.595500,1799
134.596000,1787
134.596500,1794
134.597000,1802
134.597500,1794
134.598000,1797
134.598500,1815
134.599000,1826
134.599500,1814
134.600000,1817
134.600500,1823
134.601000,1816
134.601500,1808
134.602000,1819
134.602500,1822
134.603000,1809
134.603500,1800
134.604000,1814
134.604500,1820
134.605000,1795
134.605500,1805
134.606000,1809
134.606500,1793
134.607000,1786
134.607500,1801
134.608000,1806
134.608500,1789
134.609000,1784
134.609500,1796
134.610000,1796
134.610500,1790
134.611000,1801
134.611500,1805
134.612000,1792
134.612500,1791
134.613000,1805
134.613500,1809
134.614000,1792
134.614500,1804
134.615000,1805
134.615500,1794
134.616000,1790
134.616500,1800
134.617000,1808
134.617500,1797
134.618000,1795
134.618500,1813
134.619000,1802
134.619500,1800
134.620000,1814
134.620500,1817
134.621000,1806
134.621500,1800
134.622000,1814
134.622500,1821
134.623000,1802
134.623500,1796
134.624000,1810
134.624500,1806
134.625000,1797
134.625500,1803
134.626000,1806
134.626500,1793
134.627000,1787
134.627500,1799
134.628000,1806
134.628500,1788
134.629000,1793
134.629500,1802
134.630000,1796
134.630500,1791
134.631000,1808
134.631500,1807
134.632000,1793
134.632500,1788
134.633000,1803
134.633500,1801
134.634000,1793
134.634500,1801
134.635000,1806
134.635500,1796
134.636000,1787
134.636500,1799
134.637000,1805
134.637500,1791
134.638000,1814
134.638500,1810
134.639000,1803
134.639500,1801
134.640000,1816
134.640500,1820
134.641000,1807
134.641500,1801
134.642000,1815
134.642500,1797
134.643000,1801
134.643500,1807
134.644000,1813
134.644500,1805
134.645000,1798
134.645500,1806
134.646000,1810
134.646500,1791
134.647000,1801
134.647500,1807
134.648000,1796
134.648500,1787
134.649000,1797
134.649500,1803
134.650000,1791
134.650500,1788
134.651000,1804
134.651500,1805
134.652000,1788
134.652500,1796
134.653000,1806
134.653500,1795
134.654000,1792
134.654500,1805
134.655000,1813
134.655500,1794
134.656000,1788
134.656500,1803
134.657000,1800
134.657500,1794
134.658000,1808
134.658500,1813
134.659000,1801
134.659500,1798
134.660000,1815
134.660500,1818
134.661000,1804
134.661500,1820
134.662000,1818
134.662500,1808
134.663000,1799
134.663500,1812
134.664000,1818
134.664500,1802
134.665000,1796
134.665500,1806
134.666000,1792
134.666500,1787
134.667000,1794
134.667500,1799
134.668000,1789
134.668500,1784
134.669000,1795
134.669500,1794
134.670000,1783
134.670500,1790
134.671000,1792
134.671500,1778
134.672000,1770
134.672500,1783
134.673000,1787
134.673500,1775
134.674000,1772
134.674500,1790
134.675000,1808
134.675500,1797
134.676000,1819
134.676500,1828
134.677000,1823
134.677500,1820
134.678000,1834
134.678500,1837
134.679000,1820
134.679500,1814
134.680000,1828
134.680500,1821
134.681000,1813
134.681500,1815
134.682000,1819
134.682500,1805
134.683000,1801
134.683500,1815
134.684000,1818
134.684500,1801
134.685000,1807
134.685500,1804
134.686000,1789
134.686500,1784
134.687000,1800
134.687500,1806
134.688000,1796
134.688500,1789
134.689000,1802
134.689500,1800
134.690000,1799
134.690500,1806
134.691000,1811
134.691500,1794
134.692000,1791
134.692500,1809
134.693000,1813
134.693500,1799
134.694000,1803
134.694500,1810
134.695000,1800
134.695500,1794
134.696000,1804
134.696500,1805
134.697000,1794
134.697500,1790
134.698000,1807
134.698500,1799
134.699000,1796
134.699500,1806
134.700000,1813
134.700500,1798
134.701000,1794
134.701500,1805
134.702000,1814
134.702500,1798
134.703000,1815
134.703500,1814
134.704000,1801
134.704500,1799
134.705000,1807
134.705500,1811
134.706000,1793
134.706500,1785
134.707000,1800
134.707500,1789
134.708000,1783
134.708500,1791
134.709000,1795
134.709500,1784
134.710000,1780
134.710500,1798
134.711000,1805
134.711500,1793
134.712000,1814
134.712500,1817
134.713000,1809
134.713500,1802
134.714000,1815
134.714500,1821
134.715000,1808
134.715500,1790
134.716000,1798
134.716500,1799
134.717000,1780
134.717500,1796
134.718000,1800
134.718500,1789
134.719000,1784
134.719500,1800
134.720000,1808
134.720500,1794
134.721000,1792
134.721500,1812
134.722000,1808
134.722500,1801
134.723000,1811
134.723500,1813
134.724000,1799
134.724500,1797
134.725000,1811
134.725500,1816
134.726000,1801
134.726500,1809
134.727000,1804
134.727500,1793
134.728000,1787
134.728500,1804
134.729000,1807
134.729500,1787
134.730000,1781
134.730500,1797
134.731000,1790
134.731500,1785
134.732000,1795
134.732500,1802
134.733000,1791
134.733500,1788
134.734000,1806
134.734500,1816
134.735000,1799
134.735500,1807
134.736000,1811
134.736500,1794
134.737000,1792
134.737500,1806
134.738000,1814
134.738500,1796
134.739000,1791
134.739500,1807
134.740000,1802
134.740500,1798
134.741000,1812
134.741500,1824
134.742000,1818
134.742500,1819
134.743000,1837
134.743500,1840
134.744000,1820
134.744500,1824
134.745000,1831
134.745500,1826
134.746000,1818
134.746500,1812
134.747000,1808
134.747500,1786
134.748000,1773
134.748500,1786
134.749000,1785
134.749500,1773
134.750000,1783
134.750500,1788
134.751000,1783
134.751500,1785
134.752000,1803
134.752500,1811
134.753000,1796
134.753500,1818
134.754000,1807
134.754500,1795
134.755000,1783
134.755500,1779
134.756000,1779
134.756500,1763
134.757000,1761
134.757500,1775
134.758000,1767
134.758500,1755
134.759000,1762
134.759500,1777
134.760000,1792
134.760500,1808
134.761000,1825
134.761500,1830
134.762000,1816
134.762500,1838
134.763000,1829
134.763500,1822
134.764000,1819
134.764500,1828
134.765000,1825
134.765500,1808
134.766000,1800
134.766500,1807
134.767000,1789
134.767500,1786
134.768000,1795
134.768500,1804
134.769000,1789
134.769500,1759
134.770000,1742
134.770500,1730
134.771000,1716
134.771500,1740
134.772000,1742
134.772500,1749
134.773000,1756
134.773500,1773
134.774000,1777
134.774500,1776
134.775000,1790
134.775500,1821
134.776000,1825
134.776500,1845
134.777000,1868
134.777500,1877
134.778000,1847
134.778500,1808
134.779000,1786
134.779500,1757
134.780000,1723
134.780500,1720
134.781000,1717
134.781500,1692
134.782000,1661
134.782500,1660
134.783000,1679
134.783500,1729
134.784000,1817
134.784500,1894
134.785000,1910
134.785500,1905
134.786000,1927
134.786500,1944
134.787000,1944
134.787500,1939
134.788000,1949
134.788500,1961
134.789000,1934
134.789500,1894
134.790000,1862
134.790500,1830
134.791000,1809
134.791500,1792
134.792000,1780
134.792500,1752
134.793000,1747
134.793500,1750
134.794000,1749
134.794500,1744
134.795000,1768
134.795500,1804
134.796000,1781
134.796500,1754
134.797000,1760
134.797500,1760
134.798000,1746
134.798500,1737
134.799000,1742
134.799500,1753
134.800000,1752
134.800500,1784
134.801000,1817
134.801500,1855
134.802000,1874
134.802500,1876
134.803000,1852
134.803500,1803
134.804000,1780
134.804500,1749
134.805000,1723
134.805500,1715
134.806000,1720
134.806500,1713
134.807000,1666
134.807500,1676
134.808000,1746
134.808500,1774
134.809000,1802
134.809500,1820
134.810000,1825
134.810500,1809
134.811000,1805
134.811500,1846
134.812000,1911
134.812500,1966
134.813000,1999
134.813500,2013
134.814000,1974
134.814500,1916
134.815000,1852
134.815500,1783
134.816000,1729
134.816500,1716
134.817000,1735
134.817500,1714
134.818000,1678
134.818500,1613
134.819000,1586
134.819500,1589
134.820000,1613
134.820500,1650
134.821000,1696
134.821500,1735
134.822000,1800
134.822500,1822
134.823000,1829
134.823500,1885
134.824000,1991
134.824500,2045
134.825000,1988
134.825500,1911
134.826000,1878
134.826500,1852
134.827000,1843
134.827500,1828
134.828000,1781
134.828500,1756
134.829000,1777
134.829500,1835
134.830000,1858
134.830500,1821
134.831000,1798
134.831500,1782
134.832000,1728
134.832500,1696
134.833000,1701
134.833500,1720
134.834000,1732
134.834500,1760
134.835000,1778
134.835500,1742
134.836000,1734
134.836500,1797
134.837000,1905
134.837500,1967
134.838000,1981
134.838500,1968
134.839000,1962
134.839500,1955
134.840000,1974
134.840500,1999
134.841000,1960
134.841500,1891
134.842000,1819
134.842500,1769
134.843000,1741
134.843500,1722
134.844000,1731
134.844500,1745
134.845000,1726
134.845500,1751
134.846000,1726
134.846500,1688
134.847000,1692
134.847500,1700
134.848000,1703
134.848500,1692
134.849000,1697
134.849500,1753
134.850000,1798
134.850500,1892
134.851000,1977
134.851500,2004
134.852000,1975
134.852500,1923
134.853000,1881
134.853500,1835
134.854000,1793
134.854500,1771
134.855000,1782
134.855500,1802
134.856000,1824
134.856500,1826
134.857000,1779
134.857500,1707
134.858000,1678
134.858500,1693
134.859000,1721
134.859500,1728
134.860000,1788
134.860500,1843
134.861000,1859
134.861500,1865
134.862000,1864
134.862500,1846
134.863000,1801
134.863500,1777
134.864000,1801
134.864500,1840
134.865000,1870
134.865500,1901
134.866000,1926
134.866500,1906
134.867000,1862
134.867500,1835
134.868000,1815
134.868500,1790
134.869000,1792
134.869500,1778
134.870000,1783
134.870500,1787
134.871000,1777
134.871500,1730
134.872000,1691
134.872500,1686
134.873000,1686
134.873500,1652
134.874000,1659
134.874500,1706
134.875000,1726
134.875500,1699
134.876000,1689
134.876500,1735
134.877000,1804
134.877500,1862
134.878000,1932
134.878500,1967
134.879000,2000
134.879500,2031
134.880000,2031
134.880500,1990
134.881000,1915
134.881500,1842
134.882000,1793
134.882500,1694
134.883000,1621
134.883500,1625
134.884000,1626
134.884500,1606
134.885000,1590
134.885500,1619
134.886000,1642
134.886500,1677
134.887000,1788
134.887500,1900
134.888000,1951
134.888500,1934
134.889000,1883
134.889500,1853
134.890000,1845
134.890500,1857
134.891000,1849
134.891500,1794
134.892000,1776
134.892500,1814
134.893000,1925
134.893500,1982
134.894000,1960
134.894500,1937
134.895000,1910
134.895500,1868
134.896000,1857
134.896500,1801
134.897000,1756
134.897500,1709
134.898000,1681
134.898500,1683
134.899000,1680
134.899500,1692
134.900000,1750
134.900500,1806
134.901000,1860
134.901500,1927
134.902000,1993
134.902500,1998
134.903000,1937
134.903500,1843
134.904000,1708
134.904500,1588
134.905000,1510
134.905500,1482
134.906000,1480
134.906500,1513
134.907000,1614
134.907500,1770
134.908000,1928
134.908500,2086
134.909000,2168
134.909500,2148
134.910000,2086
134.910500,2025
134.911000,1976
134.911500,1935
134.912000,1917
134.912500,1905
134.913000,1868
134.913500,1813
134.914000,1773
134.914500,1737
134.915000,1680
134.915500,1632
134.916000,1608
134.916500,1604
134.917000,1605
134.917500,1640
134.918000,1724
134.918500,1817
134.919000,1882
134.919500,1950
134.920000,1936
134.920500,1902
134.921000,1898
134.921500,1913
134.922000,1905
134.922500,1862
134.923000,1842
134.923500,1857
134.924000,1825
134.924500,1764
134.925000,1650
134.925500,1548
134.926000,1481
134.926500,1481
134.927000,1528
134.927500,1612
134.928000,1716
134.928500,1807
134.929000,1917
134.929500,1993
134.930000,2030
134.930500,2005
134.931000,1948
134.931500,1896
134.932000,1898
134.932500,1923
134.933000,1929
134.933500,1901
134.934000,1874
134.934500,1834
134.935000,1798
134.935500,1771
134.936000,1769
134.936500,1750
134.937000,1729
134.937500,1742
134.938000,1809
134.938500,1803
134.939000,1743
134.939500,1708
134.940000,1699
134.940500,1668
134.941000,1657
134.941500,1699
134.942000,1761
134.942500,1804
134.943000,1874
134.943500,1921
134.944000,1930
134.944500,1939
134.945000,1922
134.945500,1864
134.946000,1773
134.946500,1718
134.947000,1716
134.947500,1686
134.948000,1685
134.948500,1702
134.949000,1731
134.949500,1757
134.950000,1789
134.950500,1793
134.951000,1788
134.951500,1786
134.952000,1811
134.952500,1827
134.953000,1826
134.953500,1854
134.954000,1886
134.954500,1887
134.955000,1856
134.955500,1842
134.956000,1861
134.956500,1879
134.957000,1874
134.957500,1893
134.958000,1878
134.958500,1825
134.959000,1791
134.959500,1778
134.960000,1789
134.960500,1794
134.961000,1806
134.961500,1816
134.962000,1837
134.962500,1861
134.963000,1864
134.963500,1861
134.964000,1838
134.964500,1804
134.965000,1792
134.965500,1756
134.966000,1708
134.966500,1692
134.967000,1705
134.967500,1713
134.968000,1751
134.968500,1836
134.969000,1900
134.969500,1901
134.970000,1866
134.970500,1852
134.971000,1838
134.971500,1813
134.972000,1825
134.972500,1804
134.973000,1783
134.973500,1775
134.974000,1790
134.974500,1806
134.975000,1796
134.975500,1789
134.976000,1796
134.976500,1772
134.977000,1766
134.977500,1761
134.978000,1759
134.978500,1742
134.979000,1748
134.979500,1767
134.980000,1782
134.980500,1750
134.981000,1726
134.981500,1755
134.982000,1752
134.982500,1724
134.983000,1708
134.983500,1601
134.984000,1481
134.984500,1452
134.985000,1521
134.985500,1604
134.986000,1687
134.986500,1762
134.987000,1878
134.987500,1965
134.988000,1968
134.988500,1912
134.989000,1867
134.989500,1876
134.990000,1929
134.990500,2023
134.991000,2041
134.991500,2020
134.992000,1986
134.992500,1936
134.993000,1886
134.993500,1856
134.994000,1861
134.994500,1871
134.995000,1852
134.995500,1818
134.996000,1789
134.996500,1736
134.997000,1685
134.997500,1640
134.998000,1615
134.998500,1619
134.999000,1686
134.999500,1774
135.000000,1782
135.000500,1829
135.001000,1940
135.001500,1980
135.002000,1930
135.002500,1893
135.003000,1896
135.003500,1890
135.004000,1874
135.004500,1900
135.005000,1920
135.005500,1896
135.006000,1859
135.006500,1835
135.007000,1818
135.007500,1794
135.008000,1788
135.008500,1786
135.009000,1774
135.009500,1769
135.010000,1781
135.010500,1791
135.011000,1778
135.011500,1774
135.012000,1783
135.012500,1736
135.013000,1685
135.013500,1680
135.014000,1682
135.014500,1649
135.015000,1646
135.015500,1678
135.016000,1718
135.016500,1764
135.017000,1793
135.017500,1776
135.018000,1734
135.018500,1726
135.019000,1747
135.019500,1769
135.020000,1795
135.020500,1865
135.021000,1974
135.021500,2045
135.022000,2006
135.022500,1954
135.023000,1892
135.023500,1836
135.024000,1808
135.024500,1804
135.025000,1817
135.025500,1836
135.026000,1860
135.026500,1874
135.027000,1875
135.027500,1848
135.028000,1827
135.028500,1794
135.029000,1743
135.029500,1701
135.030000,1696
135.030500,1700
135.031000,1735
135.031500,1797
135.032000,1860
135.032500,1868
135.033000,1866
135.033500,1860
135.034000,1841
135.034500,1808
135.035000,1786
135.035500,1784
135.036000,1778
135.036500,1760
135.037000,1771
135.037500,1797
135.038000,1800
135.038500,1790
135.039000,1798
135.039500,1807
135.040000,1802
135.040500,1804
135.041000,1817
135.041500,1789
135.042000,1755
135.042500,1755
135.043000,1754
135.043500,1733
135.044000,1724
135.044500,1746
135.045000,1795
135.045500,1824
135.046000,1817
135.046500,1796
135.047000,1778
135.047500,1772
135.048000,1756
135.048500,1727
135.049000,1698
135.049500,1685
135.050000,1723
135.050500,1754
135.051000,1806
135.051500,1844
135.052000,1820
135.052500,1740
135.053000,1671
135.053500,1680
135.054000,1719
135.054500,1729
135.055000,1791
135.055500,1840
135.056000,1927
135.056500,2010
135.057000,2042
135.057500,2018
135.058000,1947
135.058500,1895
135.059000,1872
135.059500,1854
135.060000,1843
135.060500,1823
135.061000,1803
135.061500,1788
135.062000,1802
135.062500,1855
135.063000,1871
135.063500,1831
135.064000,1835
135.064500,1795
135.065000,1751
135.065500,1712
135.066000,1697
135.066500,1664
135.067000,1667
135.067500,1716
135.068000,1783
135.068500,1800
135.069000,1819
135.069500,1886
135.070000,1936
135.070500,1879
135.071000,1809
135.071500,1777
135.072000,1740
135.072500,1721
135.073000,1740
135.073500,1737
135.074000,1732
135.074500,1758
135.075000,1827
135.075500,1879
135.076000,1873
135.076500,1845
135.077000,1856
135.077500,1835
135.078000,1777
135.078500,1748
135.079000,1705
135.079500,1649
135.080000,1645
135.080500,1712
135.081000,1817
135.081500,1896
135.082000,1974
135.082500,2013
135.083000,1989
135.083500,1929
135.084000,1889
135.084500,1866
135.085000,1841
135.085500,1845
135.086000,1837
135.086500,1806
135.087000,1782
135.087500,1791
135.088000,1790
135.088500,1762
135.089000,1725
135.089500,1724
135.090000,1723
135.090500,1678
135.091000,1680
135.091500,1745
135.092000,1809
135.092500,1858
135.093000,1894
135.093500,1901
135.094000,1856
135.094500,1810
135.095000,1778
135.095500,1752
135.096000,1705
135.096500,1677
135.097000,1680
135.097500,1712
135.098000,1818
135.098500,1858
135.099000,1841
135.099500,1827
135.100000,1807
135.100500,1839
135.101000,1856
135.101500,1852
135.102000,1879
135.102500,1888
135.103000,1832
135.103500,1791
135.104000,1779
135.104500,1760
135.105000,1723
135.105500,1731
135.106000,1778
135.106500,1855
135.107000,1908
135.107500,1919
135.108000,1897
135.108500,1852
135.109000,1820
135.109500,1783
135.110000,1711
135.110500,1676
135.111000,1670
135.111500,1680
135.112000,1687
135.112500,1729
135.113000,1800
135.113500,1868
135.114000,1895
135.114500,1908
135.115000,1885
135.115500,1861
135.116000,1850
135.116500,1861
135.117000,1875
135.117500,1851
135.118000,1813
135.118500,1787
135.119000,1741
135.119500,1693
135.120000,1688
135.120500,1732
135.121000,1764
135.121500,1768
135.122000,1798
135.122500,1809
135.123000,1787
135.123500,1794
135.124000,1853
135.124500,1895
135.125000,1909
135.125500,1877
135.126000,1859
135.126500,1825
135.127000,1792
135.127500,1777
135.128000,1734
135.128500,1692
135.129000,1696
135.129500,1717
135.130000,1736
135.130500,1798
135.131000,1914
135.131500,1942
135.132000,1874
135.132500,1812
135.133000,1790
135.133500,1756
135.134000,1740
135.134500,1739
135.135000,1686
135.135500,1621
135.136000,1579
135.136500,1542
135.137000,1544
135.137500,1579
135.138000,1689
135.138500,1815
135.139000,1903
135.139500,1981
135.140000,2055
135.140500,2063
135.141000,2024
135.141500,2011
135.142000,2033
135.142500,2002
135.143000,1956
135.143500,1916
135.144000,1886
135.144500,1854
135.145000,1825
135.145500,1817
135.146000,1804
135.146500,1776
135.147000,1778
135.147500,1796
135.148000,1792
135.148500,1795
135.149000,1806
135.149500,1805
135.150000,1767
135.150500,1733
135.151000,1741
135.151500,1740
135.152000,1737
135.152500,1755
135.153000,1780
135.153500,1791
135.154000,1751
135.154500,1719
135.155000,1715
135.155500,1697
135.156000,1745
135.156500,1796
135.157000,1833
135.157500,1857
135.158000,1899
135.158500,1909
135.159000,1868
135.159500,1815
135.160000,1788
135.160500,1699
135.161000,1656
135.161500,1659
135.162000,1682
135.162500,1700
135.163000,1739
135.163500,1801
135.164000,1891
135.164500,1932
135.165000,1919
135.165500,1882
135.166000,1861
135.166500,1851
135.167000,1830
135.167500,1820
135.168000,1811
135.168500,1828
135.169000,1855
135.169500,1849
135.170000,1820
135.170500,1822
135.171000,1808
135.171500,1793
135.172000,1798
135.172500,1796
135.173000,1780
135.173500,1768
135.174000,1767
135.174500,1798
135.175000,1814
135.175500,1817
135.176000,1823
135.176500,1826
135.177000,1816
135.177500,1804
135.178000,1802
135.178500,1784
135.179000,1741
135.179500,1729
135.180000,1735
135.180500,1684
135.181000,1655
135.181500,1674
135.182000,1701
135.182500,1736
135.183000,1790
135.183500,1853
135.184000,1882
135.184500,1917
135.185000,1932
135.185500,1894
135.186000,1812
135.186500,1724
135.187000,1686
135.187500,1668
135.188000,1647
135.188500,1674
135.189000,1746
135.189500,1810
135.190000,1874
135.190500,1918
135.191000,1947
135.191500,1920
135.192000,1828
135.192500,1778
135.193000,1763
135.193500,1749
135.194000,1764
135.194500,1822
135.195000,1920
135.195500,1973
135.196000,1964
135.196500,1920
135.197000,1880
135.197500,1868
135.198000,1844
135.198500,1821
135.199000,1814
135.199500,1825
135.200000,1831
135.200500,1808
135.201000,1758
135.201500,1730
135.202000,1668
135.202500,1644
135.203000,1657
135.203500,1694
135.204000,1766
135.204500,1837
135.205000,1860
135.205500,1861
135.206000,1833
135.206500,1817
135.207000,1761
135.207500,1669
135.208000,1573
135.208500,1582
135.209000,1635
135.209500,1636
135.210000,1634
135.210500,1653
135.211000,1712
135.211500,1780
135.212000,1853
135.212500,1914
135.213000,1975
135.213500,2029
135.214000,2079
135.214500,2097
135.215000,2065
135.215500,1990
135.216000,1936
135.216500,1887
135.217000,1858
135.217500,1848
135.218000,1839
135.218500,1813
135.219000,1795
135.219500,1804
135.220000,1811
135.220500,1801
135.221000,1789
135.221500,1781
135.222000,1757
135.222500,1755
135.223000,1766
135.223500,1765
135.224000,1755
135.224500,1764
135.225000,1786
135.225500,1762
135.226000,1750
135.226500,1770
135.227000,1780
135.227500,1752
135.228000,1711
135.228500,1703
135.229000,1708
135.229500,1702
135.230000,1730
135.230500,1758
135.231000,1800
135.231500,1841
135.232000,1886
135.232500,1903
135.233000,1891
135.233500,1883
135.234000,1890
135.234500,1870
135.235000,1860
135.235500,1849
135.236000,1831
135.236500,1792
135.237000,1762
135.237500,1764
135.238000,1770
135.238500,1756
135.239000,1799
135.239500,1810
135.240000,1791
135.240500,1776
135.241000,1770
135.241500,1777
135.242000,1778
135.242500,1774
135.243000,1798
135.243500,1760
135.244000,1722
135.244500,1689
135.245000,1708
135.245500,1740
135.246000,1785
135.246500,1836
135.247000,1897
135.247500,1894
135.248000,1890
135.248500,1862
135.249000,1860
135.249500,1866
135.250000,1894
135.250500,1906
135.251000,1883
135.251500,1844
135.252000,1825
135.252500,1782
135.253000,1769
135.253500,1780
135.254000,1786
135.254500,1773
135.255000,1749
135.255500,1742
135.256000,1724
135.256500,1701
135.257000,1737
135.257500,1761
135.258000,1706
135.258500,1650
135.259000,1675
135.259500,1720
135.260000,1733
135.260500,1771
135.261000,1878
135.261500,1991
135.262000,2013
135.262500,1980
135.263000,1886
135.263500,1759
135.264000,1710
135.264500,1717
135.265000,1711
135.265500,1704
135.266000,1727
135.266500,1785
135.267000,1812
135.267500,1817
135.268000,1847
135.268500,1903
135.269000,1874
135.269500,1826
135.270000,1823
135.270500,1790
135.271000,1718
135.271500,1688
135.272000,1709
135.272500,1700
135.273000,1678
135.273500,1711
135.274000,1759
135.274500,1810
135.275000,1872
135.275500,1936
135.276000,1987
135.276500,2023
135.277000,2013
135.277500,1972
135.278000,1926
135.278500,1902
135.279000,1888
135.279500,1853
135.280000,1804
135.280500,1784
135.281000,1796
135.281500,1799
135.282000,1791
135.282500,1802
135.283000,1812
135.283500,1792
135.284000,1798
135.284500,1814
135.285000,1813
135.285500,1780
135.286000,1791
135.286500,1805
135.287000,1784
135.287500,1749
135.288000,1727
135.288500,1719
135.289000,1696
135.289500,1703
135.290000,1754
135.290500,1807
135.291000,1845
135.291500,1862
135.292000,1849
135.292500,1828
135.293000,1825
135.293500,1837
135.294000,1833
135.294500,1800
135.295000,1785
135.295500,1741
135.296000,1732
135.296500,1734
135.297000,1754
135.297500,1781
135.298000,1803
135.298500,1803
135.299000,1798
135.299500,1777
135.300000,1773
135.300500,1786
135.301000,1778
135.301500,1744
135.302000,1716
135.302500,1737
135.303000,1746
135.303500,1744
135.304000,1773
135.304500,1804
135.305000,1823
135.305500,1874
135.306000,1951
135.306500,1971
135.307000,1925
135.307500,1867
135.308000,1834
135.308500,1796
135.309000,1769
135.309500,1780
135.310000,1792
135.310500,1774
135.311000,1761
135.311500,1764
135.312000,1753
135.312500,1725
135.313000,1742
135.313500,1781
135.314000,1766
135.314500,1746
135.315000,1750
135.315500,1742
135.316000,1708
135.316500,1683
135.317000,1711
135.317500,1757
135.318000,1794
135.318500,1844
135.319000,1861
135.319500,1905
135.320000,1956
135.320500,1983
135.321000,1954
135.321500,1870
135.322000,1824
135.322500,1822
135.323000,1805
135.323500,1782
135.324000,1789
135.324500,1853
135.325000,1881
135.325500,1838
135.326000,1824
135.326500,1835
135.327000,1833
135.327500,1841
135.328000,1836
135.328500,1815
135.329000,1789
135.329500,1783
135.330000,1752
135.330500,1691
135.331000,1633
135.331500,1627
135.332000,1644
135.332500,1649
135.333000,1702
135.333500,1789
135.334000,1839
135.334500,1869
135.335000,1877
135.335500,1881
135.336000,1870
135.336500,1851
135.337000,1863
135.337500,1883
135.338000,1899
135.338500,1919
135.339000,1918
135.339500,1834
135.340000,1753
135.340500,1702
135.341000,1685
135.341500,1686
135.342000,1733
135.342500,1775
135.343000,1825
135.343500,1891
135.344000,1953
135.344500,1952
135.345000,1895
135.345500,1851
135.346000,1824
135.346500,1779
135.347000,1759
135.347500,1757
135.348000,1741
135.348500,1723
135.349000,1722
135.349500,1741
135.350000,1724
135.350500,1707
135.351000,1773
135.351500,1826
135.352000,1838
135.352500,1853
135.353000,1912
135.353500,1924
135.354000,1877
135.354500,1842
135.355000,1837
135.355500,1816
135.356000,1803
135.356500,1805
135.357000,1810
135.357500,1799
135.358000,1752
135.358500,1718
135.359000,1715
135.359500,1686
135.360000,1686
135.360500,1698
135.361000,1674
135.361500,1644
135.362000,1667
135.362500,1724
135.363000,1755
135.363500,1788
135.364000,1865
135.364500,1914
135.365000,1908
135.365500,1881
135.366000,1823
135.366500,1774
135.367000,1773
135.367500,1807
135.368000,1819
135.368500,1798
135.369000,1824
135.369500,1869
135.370000,1877
135.370500,1898
135.371000,1925
135.371500,1935
135.372000,1904
135.372500,1876
135.373000,1871
135.373500,1837
135.374000,1810
135.374500,1814
135.375000,1810
135.375500,1794
135.376000,1793
135.376500,1834
135.377000,1868
135.377500,1853
135.378000,1838
135.378500,1811
135.379000,1768
135.379500,1695
135.380000,1633
135.380500,1551
135.381000,1518
135.381500,1588
135.382000,1682
135.382500,1703
135.383000,1743
135.383500,1824
135.384000,1915
135.384500,1950
135.385000,1955
135.385500,1960
135.386000,1957
135.386500,1895
135.387000,1827
135.387500,1743
135.388000,1668
135.388500,1666
135.389000,1724
135.389500,1764
135.390000,1824
135.390500,1896
135.391000,1953
135.391500,1952
135.392000,1934
135.392500,1929
135.393000,1913
135.393500,1871
135.394000,1813
135.394500,1792
135.395000,1762
135.395500,1757
135.396000,1761
135.396500,1772
135.397000,1783
135.397500,1812
135.398000,1801
135.398500,1742
135.399000,1663
135.399500,1612
135.400000,1523
135.400500,1436
135.401000,1403
135.401500,1415
135.402000,1457
135.402500,1550
135.403000,1732
135.403500,1939
135.404000,2135
135.404500,2248
135.405000,2287
135.405500,2180
135.406000,2016
135.406500,1902
135.407000,1845
135.407500,1806
135.408000,1753
135.408500,1692
135.409000,1708
135.409500,1756
135.410000,1798
135.410500,1869
135.411000,1964
135.411500,2025
135.412000,2017
135.412500,1948
135.413000,1863
135.413500,1808
135.414000,1814
135.414500,1828
135.415000,1828
135.415500,1818
135.416000,1786
135.416500,1749
135.417000,1708
135.417500,1678
135.418000,1683
135.418500,1609
135.419000,1538
135.419500,1555
135.420000,1611
135.420500,1659
135.421000,1741
135.421500,1836
135.422000,1941
135.422500,1999
135.423000,1986
135.423500,1914
135.424000,1838
135.424500,1812
135.425000,1817
135.425500,1844
135.426000,1873
135.426500,1941
135.427000,1969
135.427500,1965
135.428000,1931
135.428500,1881
135.429000,1835
135.429500,1789
135.430000,1760
135.430500,1710
135.431000,1636
135.431500,1629
135.432000,1679
135.432500,1728
135.433000,1750
135.433500,1818
135.434000,1909
135.434500,1952
135.435000,1916
135.435500,1900
135.436000,1854
135.436500,1818
135.437000,1792
135.437500,1795
135.438000,1820
135.438500,1785
135.439000,1708
135.439500,1689
135.440000,1668
135.440500,1670
135.441000,1704
135.441500,1745
135.442000,1786
135.442500,1856
135.443000,1869
135.443500,1805
135.444000,1708
135.444500,1657
135.445000,1630
135.445500,1608
135.446000,1600
135.446500,1650
135.447000,1704
135.447500,1758
135.448000,1840
135.448500,1934
135.449000,1944
135.449500,1974
135.450000,2018
135.450500,2005
135.451000,1927
135.451500,1871
135.452000,1925
135.452500,1968
135.453000,1873
135.453500,1787
135.454000,1738
135.454500,1736
135.455000,1745
135.455500,1785
135.456000,1819
135.456500,1843
135.457000,1867
135.457500,1886
135.458000,1863
135.458500,1834
135.459000,1826
135.459500,1826
135.460000,1824
135.460500,1814
135.461000,1805
135.461500,1787
135.462000,1759
135.462500,1745
135.463000,1716
135.463500,1671
135.464000,1634
135.464500,1632
135.465000,1667
135.465500,1690
135.466000,1724
135.466500,1800
135.467000,1822
135.467500,1825
135.468000,1852
135.468500,1882
135.469000,1857
135.469500,1837
135.470000,1823
135.470500,1805
135.471000,1765
135.471500,1718
135.472000,1688
135.472500,1692
135.473000,1743
135.473500,1813
135.474000,1862
135.474500,1913
135.475000,1972
135.475500,2000
135.476000,1972
135.476500,1946
135.477000,1923
135.477500,1896
135.478000,1874
135.478500,1869
135.479000,1870
135.479500,1855
135.480000,1838
135.480500,1832
135.481000,1828
135.481500,1771
135.482000,1745
135.482500,1736
135.483000,1714
135.483500,1680
135.484000,1679
135.484500,1737
135.485000,1794
135.485500,1787
135.486000,1819
135.486500,1854
135.487000,1824
135.487500,1801
135.488000,1804
135.488500,1826
135.489000,1810
135.489500,1785
135.490000,1786
135.490500,1757
135.491000,1732
135.491500,1733
135.492000,1743
135.492500,1750
135.493000,1762
135.493500,1758
135.494000,1722
135.494500,1653
135.495000,1622
135.495500,1526
135.496000,1450
135.496500,1434
135.497000,1489
135.497500,1607
135.498000,1790
135.498500,2023
135.499000,2195
135.499500,2249
135.500000,2218
135.500500,2143
135.501000,2033
135.501500,1949
135.502000,1904
135.502500,1900
135.503000,1877
135.503500,1841
135.504000,1818
135.504500,1821
135.505000,1812
135.505500,1800
135.506000,1805
135.506500,1792
135.507000,1702
135.507500,1626
135.508000,1615
135.508500,1633
135.509000,1674
135.509500,1752
135.510000,1884
135.510500,1959
135.511000,1972
135.511500,1954
135.512000,1930
135.512500,1877
135.513000,1833
135.513500,1832
135.514000,1809
135.514500,1770
135.515000,1771
135.515500,1772
135.516000,1756
135.516500,1756
135.517000,1797
135.517500,1828
135.518000,1821
135.518500,1828
135.519000,1843
135.519500,1814
135.520000,1787
135.520500,1783
135.521000,1784
135.521500,1738
135.522000,1670
135.522500,1626
135.523000,1610
135.523500,1622
135.524000,1670
135.524500,1710
135.525000,1714
135.525500,1725
135.526000,1764
135.526500,1728
135.527000,1702
135.527500,1729
135.528000,1796
135.528500,1848
135.529000,1920
135.529500,1991
135.530000,1995
135.530500,1919
135.531000,1855
135.531500,1789
135.532000,1755
135.532500,1757
135.533000,1807
135.533500,1858
135.534000,1872
135.534500,1866
135.535000,1866
135.535500,1846
135.536000,1778
135.536500,1747
135.537000,1740
135.537500,1702
135.538000,1664
135.538500,1679
135.539000,1723
135.539500,1793
135.540000,1856
135.540500,1905
135.541000,1914
135.541500,1915
135.542000,1922
135.542500,1924
135.543000,1906
135.543500,1894
135.544000,1900
135.544500,1885
135.545000,1867
135.545500,1879
135.546000,1862
135.546500,1822
135.547000,1798
135.547500,1800
135.548000,1793
135.548500,1765
135.549000,1735
135.549500,1731
135.550000,1719
135.550500,1718
135.551000,1749
135.551500,1782
135.552000,1797
135.552500,1802
135.553000,1787
135.553500,1793
135.554000,1778
135.554500,1779
135.555000,1789
135.555500,1788
135.556000,1815
135.556500,1804
135.557000,1752
135.557500,1696
135.558000,1676
135.558500,1679
135.559000,1704
135.559500,1807
135.560000,1875
135.560500,1856
135.561000,1757
135.561500,1673
135.562000,1574
135.562500,1431
135.563000,1351
135.563500,1410
135.564000,1515
135.564500,1660
135.565000,1898
135.565500,2190
135.566000,2362
135.566500,2331
135.567000,2200
135.567500,2084
135.568000,1944
135.568500,1848
135.569000,1812
135.569500,1808
135.570000,1815
135.570500,1828
135.571000,1861
135.571500,1875
135.572000,1866
135.572500,1885
135.573000,1872
135.573500,1836
135.574000,1793
135.574500,1777
135.575000,1786
135.575500,1770
135.576000,1762
135.576500,1794
135.577000,1788
135.577500,1765
135.578000,1741
135.578500,1744
135.579000,1740
135.579500,1765
135.580000,1837
135.580500,1868
135.581000,1828
135.581500,1796
135.582000,1815
135.582500,1812
135.583000,1794
135.583500,1802
135.584000,1809
135.584500,1776
135.585000,1752
135.585500,1771
135.586000,1794
135.586500,1782
135.587000,1786
135.587500,1764
135.588000,1710
135.588500,1683
135.589000,1705
135.589500,1754
135.590000,1827
135.590500,1887
135.591000,1924
135.591500,1908
135.592000,1882
135.592500,1835
135.593000,1803
135.593500,1774
135.594000,1757
135.594500,1749
135.595000,1714
135.595500,1678
135.596000,1717
135.596500,1719
135.597000,1708
135.597500,1732
135.598000,1775
135.598500,1803
135.599000,1829
135.599500,1842
135.600000,1848
135.600500,1838
135.601000,1856
135.601500,1882
135.602000,1878
135.602500,1850
135.603000,1813
135.603500,1793
135.604000,1799
135.604500,1794
135.605000,1831
135.605500,1861
135.606000,1844
135.606500,1785
135.607000,1769
135.607500,1771
135.608000,1770
135.608500,1786
135.609000,1837
135.609500,1868
135.610000,1877
135.610500,1889
135.611000,1874
135.611500,1830
135.612000,1806
135.612500,1810
135.613000,1766
135.613500,1700
135.614000,1642
135.614500,1579
135.615000,1543
135.615500,1564
135.616000,1634
135.616500,1713
135.617000,1798
135.617500,1897
135.618000,1958
135.618500,1941
135.619000,1912
135.619500,1901
135.620000,1876
135.620500,1784
135.621000,1756
135.621500,1779
135.622000,1789
135.622500,1765
135.623000,1788
135.623500,1843
135.624000,1860
135.624500,1866
135.625000,1943
135.625500,1997
135.626000,1947
135.626500,1887
135.627000,1856
135.627500,1820
135.628000,1781
135.628500,1779
135.629000,1809
135.629500,1824
135.630000,1825
135.630500,1845
135.631000,1840
135.631500,1831
135.632000,1830
135.632500,1822
135.633000,1820
135.633500,1828
135.634000,1826
135.634500,1800
135.635000,1762
135.635500,1775
135.636000,1769
135.636500,1745
135.637000,1709
135.637500,1691
135.638000,1672
135.638500,1642
135.639000,1670
135.639500,1748
135.640000,1788
135.640500,1847
135.641000,1884
135.641500,1898
135.642000,1866
135.642500,1824
135.643000,1823
135.643500,1849
135.644000,1851
135.644500,1857
135.645000,1858
135.645500,1823
135.646000,1751
135.646500,1621
135.647000,1482
135.647500,1386
135.648000,1386
135.648500,1470
135.649000,1572
135.649500,1748
135.650000,1972
135.650500,2127
135.651000,2163
135.651500,2130
135.652000,2069
135.652500,1993
135.653000,1921
135.653500,1882
135.654000,1822
135.654500,1780
135.655000,1780
135.655500,1810
135.656000,1846
135.656500,1844
135.657000,1841
135.657500,1852
135.658000,1832
135.658500,1819
135.659000,1810
135.659500,1782
135.660000,1746
135.660500,1744
135.661000,1761
135.661500,1761
135.662000,1749
135.662500,1763
135.663000,1746
135.663500,1757
135.664000,1814
135.664500,1887
135.665000,1908
135.665500,1893
135.666000,1890
135.666500,1879
135.667000,1836
135.667500,1811
135.668000,1813
135.668500,1817
135.669000,1810
135.669500,1800
135.670000,1803
135.670500,1781
135.671000,1744
135.671500,1731
135.672000,1719
135.672500,1682
135.673000,1661
135.673500,1674
135.674000,1657
135.674500,1653
135.675000,1729
135.675500,1796
135.676000,1814
135.676500,1822
135.677000,1850
135.677500,1878
135.678000,1884
135.678500,1910
135.679000,1928
135.679500,1868
135.680000,1798
135.680500,1762
135.681000,1751
135.681500,1733
135.682000,1757
135.682500,1845
135.683000,1876
135.683500,1810
135.684000,1759
135.684500,1744
135.685000,1713
135.685500,1698
135.686000,1706
135.686500,1689
135.687000,1681
135.687500,1700
135.688000,1740
135.688500,1714
135.689000,1671
135.689500,1737
135.690000,1811
135.690500,1862
135.691000,1916
135.691500,1997
135.692000,2055
135.692500,2025
135.693000,1945
135.693500,1892
135.694000,1867
135.694500,1841
135.695000,1814
135.695500,1743
135.696000,1610
135.696500,1543
135.697000,1560
135.697500,1618
135.698000,1689
135.698500,1790
135.699000,1946
135.699500,2022
135.700000,2017
135.700500,1989
135.701000,1921
135.701500,1835
135.702000,1807
135.702500,1836
135.703000,1821
135.703500,1768
135.704000,1773
135.704500,1767
135.705000,1748
135.705500,1760
135.706000,1829
135.706500,1878
135.707000,1882
135.707500,1899
135.708000,1899
135.708500,1880
135.709000,1874
135.709500,1873
135.710000,1860
135.710500,1814
135.711000,1770
135.711500,1780
135.712000,1758
135.712500,1724
135.713000,1720
135.713500,1739
135.714000,1749
135.714500,1758
135.715000,1797
135.715500,1816
135.716000,1838
135.716500,1858
135.717000,1824
135.717500,1702
135.718000,1549
135.718500,1431
135.719000,1377
135.719500,1379
135.720000,1514
135.720500,1726
135.721000,1965
135.721500,2125
135.722000,2205
135.722500,2197
135.723000,2127
135.723500,2038
135.724000,1963
135.724500,1888
135.725000,1851
135.725500,1861
135.726000,1864
135.726500,1836
135.727000,1815
135.727500,1809
135.728000,1801
135.728500,1779
135.729000,1789
135.729500,1814
135.730000,1796
135.730500,1772
135.731000,1773
135.731500,1771
135.732000,1749
135.732500,1742
135.733000,1758
135.733500,1742
135.734000,1721
135.734500,1713
135.735000,1721
135.735500,1717
135.736000,1717
135.736500,1748
135.737000,1787
135.737500,1841
135.738000,1884
135.738500,1871
135.739000,1834
135.739500,1790
135.740000,1794
135.740500,1774
135.741000,1729
135.741500,1726
135.742000,1766
135.742500,1788
135.743000,1815
135.743500,1842
135.744000,1807
135.744500,1658
135.745000,1510
135.745500,1432
135.746000,1416
135.746500,1427
135.747000,1537
135.747500,1758
135.748000,1938
135.748500,2012
135.749000,2072
135.749500,2112
135.750000,2086
135.750500,2028
135.751000,2046
135.751500,2054
135.752000,2036
135.752500,2006
135.753000,1959
135.753500,1900
135.754000,1859
135.754500,1846
135.755000,1812
135.755500,1770
135.756000,1754
135.756500,1749
135.757000,1721
135.757500,1699
135.758000,1695
135.758500,1706
135.759000,1724
135.759500,1760
135.760000,1793
135.760500,1795
135.761000,1800
135.761500,1787
135.762000,1753
135.762500,1714
135.763000,1708
135.763500,1728
135.764000,1735
135.764500,1768
135.765000,1873
135.765500,1934
135.766000,1914
135.766500,1901
135.767000,1910
135.767500,1893
135.768000,1836
135.768500,1798
135.769000,1732
135.769500,1607
135.770000,1549
135.770500,1560
135.771000,1587
135.771500,1635
135.772000,1744
135.772500,1906
135.773000,2046
135.773500,2083
135.774000,2045
135.774500,1993
135.775000,1922
135.775500,1877
135.776000,1858
135.776500,1840
135.777000,1816
135.777500,1796
135.778000,1774
135.778500,1708
135.779000,1577
135.779500,1400
135.780000,1286
135.780500,1248
135.781000,1332
135.781500,1564
135.782000,1814
135.782500,2077
135.783000,2326
135.783500,2323
135.784000,2202
135.784500,2094
135.785000,2010
135.785500,1907
135.786000,1808
135.786500,1758
135.787000,1784
135.787500,1797
135.788000,1824
135.788500,1837
135.789000,1837
135.789500,1814
135.790000,1797
135.790500,1754
135.791000,1729
135.791500,1716
135.792000,1728
135.792500,1749
135.793000,1809
135.793500,1862
135.794000,1909
135.794500,1916
135.795000,1882
135.795500,1834
135.796000,1799
135.796500,1783
135.797000,1755
135.797500,1763
135.798000,1767
135.798500,1767
135.799000,1774
135.799500,1799
135.800000,1804
135.800500,1733
135.801000,1720
135.801500,1723
135.802000,1728
135.802500,1753
135.803000,1802
135.803500,1836
135.804000,1825
135.804500,1797
135.805000,1793
135.805500,1757
135.806000,1667
135.806500,1556
135.807000,1549
135.807500,1582
135.808000,1624
135.808500,1686
135.809000,1783
135.809500,1900
135.810000,1971
135.810500,1986
135.811000,1984
135.811500,1960
135.812000,1951
135.812500,1972
135.813000,1986
135.813500,1971
135.814000,1943
135.814500,1919
135.815000,1898
135.815500,1905
135.816000,1884
135.816500,1854
135.817000,1835
135.817500,1838
135.818000,1837
135.818500,1814
135.819000,1774
135.819500,1760
135.820000,1741
135.820500,1736
135.821000,1750
135.821500,1745
135.822000,1695
135.822500,1663
135.823000,1661
135.823500,1675
135.824000,1676
135.824500,1698
135.825000,1740
135.825500,1819
135.826000,1938
135.826500,1969
135.827000,1867
135.827500,1763
135.828000,1719
135.828500,1721
135.829000,1718
135.829500,1757
135.830000,1822
135.830500,1902
135.831000,1910
135.831500,1858
135.832000,1799
135.832500,1745
135.833000,1706
135.833500,1693
135.834000,1714
135.834500,1746
135.835000,1777
135.835500,1820
135.836000,1876
135.836500,1884
135.837000,1908
135.837500,1890
135.838000,1832
135.838500,1773
135.839000,1775
135.839500,1855
135.840000,1926
135.840500,1873
135.841000,1788
135.841500,1721
135.842000,1630
135.842500,1524
135.843000,1462
135.843500,1500
135.844000,1634
135.844500,1753
135.845000,1841
135.845500,1908
135.846000,1967
135.846500,2045
135.847000,2096
135.847500,2078
135.848000,2068
135.848500,2010
135.849000,1938
135.849500,1878
135.850000,1853
135.850500,1836
135.851000,1773
135.851500,1706
135.852000,1698
135.852500,1671
135.853000,1676
135.853500,1713
135.854000,1769
135.854500,1794
135.855000,1743
135.855500,1691
135.856000,1652
135.856500,1632
135.857000,1691
135.857500,1838
135.858000,1953
135.858500,1998
135.859000,2017
135.859500,1993
135.860000,1919
135.860500,1828
135.861000,1767
135.861500,1727
135.862000,1768
135.862500,1818
135.863000,1804
135.863500,1785
135.864000,1806
135.864500,1822
135.865000,1833
135.865500,1817
135.866000,1819
135.866500,1803
135.867000,1765
135.867500,1743
135.868000,1750
135.868500,1773
135.869000,1795
135.869500,1842
135.870000,1891
135.870500,1905
135.871000,1866
135.871500,1825
135.872000,1772
135.872500,1707
135.873000,1683
135.873500,1713
135.874000,1774
135.874500,1819
135.875000,1840
135.875500,1849
135.876000,1788
135.876500,1725
135.877000,1657
135.877500,1588
135.878000,1541
135.878500,1572
135.879000,1713
135.879500,1840
135.880000,1898
135.880500,1953
135.881000,1969
135.881500,1905
135.882000,1822
135.882500,1784
135.883000,1787
135.883500,1793
135.884000,1829
135.884500,1866
135.885000,1857
135.885500,1846
135.886000,1860
135.886500,1876
135.887000,1890
135.887500,1896
135.888000,1905
135.888500,1884
135.889000,1825
135.889500,1806
135.890000,1801
135.890500,1776
135.891000,1729
135.891500,1659
135.892000,1596
135.892500,1518
135.893000,1508
135.893500,1562
135.894000,1612
135.894500,1673
135.895000,1786
135.895500,1911
135.896000,1956
135.896500,1989
135.897000,2029
135.897500,2026
135.898000,1976
135.898500,1961
135.899000,1932
135.899500,1851
135.900000,1790
135.900500,1782
135.901000,1789
135.901500,1774
135.902000,1807
135.902500,1862
135.903000,1875
135.903500,1859
135.904000,1851
135.904500,1801
135.905000,1743
135.905500,1711
135.906000,1736
135.906500,1745
135.907000,1789
135.907500,1836
135.908000,1877
135.908500,1889
135.909000,1884
135.909500,1869
135.910000,1841
135.910500,1762
135.911000,1703
135.911500,1656
135.912000,1645
135.912500,1678
135.913000,1729
135.913500,1775
135.914000,1809
135.914500,1819
135.915000,1844
135.915500,1852
135.916000,1870
135.916500,1871
135.917000,1866
135.917500,1853
135.918000,1840
135.918500,1833
135.919000,1831
135.919500,1817
135.920000,1800
135.920500,1721
135.921000,1579
135.921500,1512
135.922000,1539
135.922500,1589
135.923000,1656
135.923500,1747
135.924000,1885
135.924500,1956
135.925000,1965
135.925500,1931
135.926000,1920
135.926500,1963
135.927000,1972
135.927500,1937
135.928000,1903
135.928500,1840
135.929000,1739
135.929500,1652
135.930000,1604
135.930500,1612
135.931000,1646
135.931500,1720
135.932000,1811
135.932500,1939
135.933000,2048
135.933500,2050
135.934000,2007
135.934500,1968
135.935000,1910
135.935500,1856
135.936000,1832
135.936500,1816
135.937000,1786
135.937500,1766
135.938000,1735
135.938500,1683
135.939000,1646
135.939500,1645
135.940000,1674
135.940500,1717
135.941000,1766
135.941500,1837
135.942000,1826
135.942500,1736
135.943000,1644
135.943500,1601
135.944000,1596
135.944500,1644
135.945000,1777
135.945500,1905
135.946000,1965
135.946500,1993
135.947000,2036
135.947500,2034
135.948000,1971
135.948500,1922
135.949000,1882
135.949500,1839
135.950000,1772
135.950500,1729
135.951000,1698
135.951500,1681
135.952000,1696
135.952500,1759
135.953000,1851
135.953500,1930
135.954000,1924
135.954500,1899
135.955000,1859
135.955500,1814
135.956000,1796
135.956500,1786
135.957000,1777
135.957500,1789
135.958000,1808
135.958500,1804
135.959000,1768
135.959500,1761
135.960000,1739
135.960500,1755
135.961000,1792
135.961500,1848
135.962000,1885
135.962500,1877
135.963000,1860
135.963500,1843
135.964000,1828
135.964500,1800
135.965000,1810
135.965500,1805
135.966000,1776
135.966500,1769
135.967000,1783
135.967500,1783
135.968000,1773
135.968500,1748
135.969000,1722
135.969500,1690
135.970000,1670
135.970500,1653
135.971000,1668
135.971500,1731
135.972000,1824
135.972500,1883
135.973000,1912
135.973500,1906
135.974000,1911
135.974500,1893
135.975000,1860
135.975500,1834
135.976000,1836
135.976500,1842
135.977000,1831
135.977500,1816
135.978000,1805
135.978500,1778
135.979000,1762
135.979500,1747
135.980000,1744
135.980500,1735
135.981000,1768
135.981500,1838
135.982000,1862
135.982500,1825
135.983000,1772
135.983500,1723
135.984000,1648
135.984500,1588
135.985000,1624
135.985500,1699
135.986000,1756
135.986500,1809
135.987000,1902
135.987500,1953
135.988000,1948
135.988500,1916
135.989000,1867
135.989500,1761
135.990000,1697
135.990500,1690
135.991000,1701
135.991500,1708
135.992000,1811
135.992500,1948
135.993000,1948
135.993500,1849
135.994000,1790
135.994500,1771
135.995000,1774
135.995500,1827
135.996000,1901
135.996500,1918
135.997000,1884
135.997500,1851
135.998000,1824
135.998500,1785
135.999000,1774
135.999500,1794
136.000000,1813
136.000500,1816
136.001000,1860
136.001500,1889
136.002000,1885
136.002500,1858
136.003000,1845
136.003500,1815
136.004000,1780
136.004500,1772
136.005000,1792
136.005500,1787
136.006000,1783
136.006500,1813
136.007000,1834
136.007500,1809
136.008000,1766
136.008500,1751
136.009000,1753
136.009500,1745
136.010000,1766
136.010500,1713
136.011000,1668
136.011500,1655
136.012000,1674
136.012500,1705
136.013000,1712
136.013500,1748
136.014000,1807
136.014500,1829
136.015000,1832
136.015500,1824
136.016000,1772
136.016500,1682
136.017000,1643
136.017500,1640
136.018000,1659
136.018500,1710
136.019000,1794
136.019500,1894
136.020000,1953
136.020500,2014
136.021000,2062
136.021500,2062
136.022000,2017
136.022500,1965
136.023000,1926
136.023500,1893
136.024000,1842
136.024500,1795
136.025000,1788
136.025500,1771
136.026000,1752
136.026500,1732
136.027000,1729
136.027500,1747
136.028000,1781
136.028500,1817
136.029000,1830
136.029500,1830
136.030000,1833
136.030500,1831
136.031000,1824
136.031500,1837
136.032000,1848
136.032500,1846
136.033000,1828
136.033500,1829
136.034000,1812
136.034500,1771
136.035000,1742
136.035500,1753
136.036000,1773
136.036500,1757
136.037000,1701
136.037500,1655
136.038000,1619
136.038500,1597
136.039000,1637
136.039500,1723
136.040000,1822
136.040500,1897
136.041000,1959
136.041500,2001
136.042000,2007
136.042500,1989
136.043000,1964
136.043500,1892
136.044000,1821
136.044500,1807
136.045000,1813
136.045500,1802
136.046000,1799
136.046500,1802
136.047000,1804
136.047500,1781
136.048000,1768
136.048500,1768
136.049000,1758
136.049500,1769
136.050000,1801
136.050500,1806
136.051000,1791
136.051500,1760
136.052000,1747
136.052500,1699
136.053000,1664
136.053500,1645
136.054000,1636
136.054500,1619
136.055000,1634
136.055500,1668
136.056000,1724
136.056500,1760
136.057000,1806
136.057500,1903
136.058000,1954
136.058500,1933
136.059000,1937
136.059500,1950
136.060000,1928
136.060500,1909
136.061000,1914
136.061500,1852
136.062000,1793
136.062500,1785
136.063000,1781
136.063500,1790
136.064000,1840
136.064500,1868
136.065000,1874
136.065500,1825
136.066000,1816
136.066500,1822
136.067000,1840
136.067500,1842
136.068000,1846
136.068500,1837
136.069000,1816
136.069500,1772
136.070000,1753
136.070500,1702
136.071000,1661
136.071500,1647
136.072000,1657
136.072500,1706
136.073000,1805
136.073500,1890
136.074000,1935
136.074500,1905
136.075000,1890
136.075500,1832
136.076000,1783
136.076500,1775
136.077000,1802
136.077500,1818
136.078000,1782
136.078500,1759
136.079000,1763
136.079500,1719
136.080000,1705
136.080500,1737
136.081000,1745
136.081500,1721
136.082000,1735
136.082500,1778
136.083000,1805
136.083500,1813
136.084000,1847
136.084500,1897
136.085000,1905
136.085500,1894
136.086000,1888
136.086500,1892
136.087000,1861
136.087500,1783
136.088000,1729
136.088500,1705
136.089000,1699
136.089500,1709
136.090000,1733
136.090500,1766
136.091000,1792
136.091500,1807
136.092000,1848
136.092500,1865
136.093000,1890
136.093500,1885
136.094000,1883
136.094500,1863
136.095000,1846
136.095500,1834
136.096000,1836
136.096500,1842
136.097000,1856
136.097500,1834
136.098000,1804
136.098500,1782
136.099000,1743
136.099500,1711
136.100000,1717
136.100500,1792
136.101000,1853
136.101500,1830
136.102000,1824
136.102500,1835
136.103000,1814
136.103500,1772
136.104000,1764
136.104500,1783
136.105000,1788
136.105500,1788
136.106000,1798
136.106500,1799
136.107000,1788
136.107500,1779
136.108000,1755
136.108500,1704
136.109000,1686
136.109500,1713
136.110000,1704
136.110500,1684
136.111000,1757
136.111500,1793
136.112000,1812
136.112500,1846
136.113000,1847
136.113500,1826
136.114000,1802
136.114500,1804
136.115000,1827
136.115500,1819
136.116000,1849
136.116500,1876
136.117000,1882
136.117500,1860
136.118000,1872
136.118500,1901
136.119000,1912
136.119500,1887
136.120000,1887
136.120500,1851
136.121000,1815
136.121500,1784
136.122000,1768
136.122500,1779
136.123000,1758
136.123500,1710
136.124000,1676
136.124500,1641
136.125000,1612
136.125500,1631
136.126000,1660
136.126500,1737
136.127000,1837
136.127500,1887
136.128000,1898
136.128500,1886
136.129000,1868
136.129500,1889
136.130000,1909
136.130500,1924
136.131000,1919
136.131500,1888
136.132000,1856
136.132500,1848
136.133000,1848
136.133500,1821
136.134000,1807
136.134500,1805
136.135000,1796
136.135500,1775
136.136000,1763
136.136500,1779
136.137000,1769
136.137500,1735
136.138000,1725
136.138500,1728
136.139000,1700
136.139500,1662
136.140000,1678
136.140500,1699
136.141000,1705
136.141500,1769
136.142000,1916
136.142500,1975
136.143000,1939
136.143500,1920
136.144000,1879
136.144500,1813
136.145000,1777
136.145500,1790
136.146000,1828
136.146500,1855
136.147000,1884
136.147500,1905
136.148000,1866
136.148500,1803
136.149000,1782
136.149500,1785
136.150000,1767
136.150500,1760
136.151000,1786
136.151500,1807
136.152000,1813
136.152500,1824
136.153000,1780
136.153500,1701
136.154000,1651
136.154500,1635
136.155000,1593
136.155500,1573
136.156000,1619
136.156500,1698
136.157000,1745
136.157500,1808
136.158000,1909
136.158500,1978
136.159000,1954
136.159500,1877
136.160000,1824
136.160500,1743
136.161000,1695
136.161500,1700
136.162000,1762
136.162500,1819
136.163000,1898
136.163500,1986
136.164000,1995
136.164500,1930
136.165000,1892
136.165500,1851
136.166000,1721
136.166500,1612
136.167000,1605
136.167500,1645
136.168000,1679
136.168500,1748
136.169000,1897
136.169500,2056
136.170000,2088
136.170500,2059
136.171000,2016
136.171500,1959
136.172000,1894
136.172500,1855
136.173000,1822
136.173500,1779
136.174000,1738
136.174500,1718
136.175000,1674
136.175500,1633
136.176000,1551
136.176500,1465
136.177000,1426
136.177500,1487
136.178000,1654
136.178500,1816
136.179000,1925
136.179500,2043
136.180000,2098
136.180500,2034
136.181000,1957
136.181500,1892
136.182000,1898
136.182500,1886
136.183000,1833
136.183500,1813
136.184000,1834
136.184500,1843
136.185000,1878
136.185500,1877
136.186000,1857
136.186500,1807
136.187000,1792
136.187500,1792
136.188000,1785
136.188500,1804
136.189000,1793
136.189500,1802
136.190000,1829
136.190500,1856
136.191000,1841
136.191500,1770
136.192000,1732
136.192500,1732
136.193000,1725
136.193500,1749
136.194000,1810
136.194500,1877
136.195000,1902
136.195500,1902
136.196000,1894
136.196500,1854
136.197000,1785
136.197500,1761
136.198000,1742
136.198500,1728
136.199000,1716
136.199500,1732
136.200000,1749
136.200500,1755
136.201000,1771
136.201500,1796
136.202000,1816
136.202500,1797
136.203000,1810
136.203500,1804
136.204000,1770
136.204500,1736
136.205000,1729
136.205500,1745
136.206000,1749
136.206500,1718
136.207000,1727
136.207500,1733
136.208000,1772
136.208500,1820
136.209000,1854
136.209500,1898
136.210000,1941
136.210500,1954
136.211000,1941
136.211500,1893
136.212000,1857
136.212500,1810
136.213000,1779
136.213500,1762
136.214000,1754
136.214500,1741
136.215000,1707
136.215500,1709
136.216000,1723
136.216500,1703
136.217000,1706
136.217500,1748
136.218000,1781
136.218500,1790
136.219000,1802
136.219500,1832
136.220000,1793
136.220500,1749
136.221000,1734
136.221500,1709
136.222000,1707
136.222500,1751
136.223000,1844
136.223500,1918
136.224000,1930
136.224500,1948
136.225000,1940
136.225500,1904
136.226000,1863
136.226500,1840
136.227000,1838
136.227500,1826
136.228000,1822
136.228500,1842
136.229000,1852
136.229500,1819
136.230000,1778
136.230500,1732
136.231000,1647
136.231500,1586
136.232000,1617
136.232500,1656
136.233000,1661
136.233500,1737
136.234000,1876
136.234500,1961
136.235000,1937
136.235500,1917
136.236000,1930
136.236500,1946
136.237000,1954
136.237500,1952
136.238000,1899
136.238500,1866
136.239000,1850
136.239500,1841
136.240000,1805
136.240500,1777
136.241000,1784
136.241500,1795
136.242000,1762
136.242500,1711
136.243000,1600
136.243500,1563
136.244000,1568
136.244500,1608
136.245000,1690
136.245500,1799
136.246000,1940
136.246500,2044
136.247000,2042
136.247500,2009
136.248000,1963
136.248500,1880
136.249000,1769
136.249500,1669
136.250000,1635
136.250500,1625
136.251000,1637
136.251500,1703
136.252000,1804
136.252500,1879
136.253000,1933
136.253500,1964
136.254000,1962
136.254500,1915
136.255000,1872
136.255500,1858
136.256000,1836
136.256500,1820
136.257000,1814
136.257500,1813
136.258000,1808
136.258500,1800
136.259000,1768
136.259500,1717
136.260000,1688
136.260500,1678
136.261000,1700
136.261500,1738
136.262000,1760
136.262500,1773
136.263000,1760
136.263500,1725
136.264000,1739
136.264500,1782
136.265000,1766
136.265500,1739
136.266000,1759
136.266500,1787
136.267000,1792
136.267500,1792
136.268000,1840
136.268500,1872
136.269000,1910
136.269500,1941
136.270000,1932
136.270500,1878
136.271000,1836
136.271500,1804
136.272000,1766
136.272500,1732
136.273000,1747
136.273500,1746
136.274000,1735
136.274500,1744
136.275000,1786
136.275500,1831
136.276000,1841
136.276500,1841
136.277000,1837
136.277500,1829
136.278000,1833
136.278500,1854
136.279000,1868
136.279500,1866
136.280000,1869
136.280500,1863
136.281000,1856
136.281500,1824
136.282000,1807
136.282500,1802
136.283000,1795
136.283500,1785
136.284000,1802
136.284500,1824
136.285000,1797
136.285500,1750
136.286000,1740
136.286500,1734
136.287000,1725
136.287500,1733
136.288000,1755
136.288500,1790
136.289000,1844
136.289500,1871
136.290000,1860
136.290500,1829
136.291000,1821
136.291500,1823
136.292000,1811
136.292500,1810
136.293000,1825
136.293500,1825
136.294000,1809
136.294500,1795
136.295000,1808
136.295500,1795
136.296000,1783
136.296500,1792
136.297000,1801
136.297500,1796
136.298000,1800
136.298500,1813
136.299000,1807
136.299500,1778
136.300000,1753
136.300500,1761
136.301000,1769
136.301500,1774
136.302000,1795
136.302500,1819
136.303000,1825
136.303500,1832
136.304000,1838
136.304500,1829
136.305000,1819
136.305500,1816
136.306000,1810
136.306500,1795
136.307000,1789
136.307500,1801
136.308000,1805
136.308500,1788
136.309000,1790
136.309500,1801
136.310000,1795
136.310500,1788
136.311000,1800
136.311500,1802
136.312000,1789
136.312500,1782
136.313000,1801
136.313500,1790
136.314000,1783
136.314500,1790
136.315000,1796
136.315500,1784
136.316000,1785
136.316500,1803
136.317000,1807
136.317500,1794
136.318000,1801
136.318500,1815
136.319000,1812
136.319500,1802
136.320000,1792
136.320500,1783
136.321000,1766
136.321500,1758
136.322000,1782
136.322500,1788
136.323000,1816
136.323500,1841
136.324000,1845
136.324500,1827
136.325000,1813
136.325500,1815
136.326000,1816
136.326500,1790
136.327000,1814
136.327500,1806
136.328000,1799
136.328500,1793
136.329000,1800
136.329500,1805
136.330000,1797
136.330500,1793
136.331000,1813
136.331500,1800
136.332000,1790
136.332500,1803
136.333000,1809
136.333500,1798
136.334000,1792
136.334500,1807
136.335000,1815
136.335500,1794
136.336000,1808
136.336500,1807
136.337000,1798
136.337500,1795
136.338000,1804
136.338500,1808
136.339000,1796
136.339500,1796
136.340000,1814
136.340500,1809
136.341000,1801
136.341500,1809
136.342000,1814
136.342500,1801
136.343000,1796
136.343500,1810
136.344000,1812
136.344500,1792
136.345000,1792
136.345500,1805
136.346000,1796
136.346500,1788
136.347000,1799
136.347500,1804
136.348000,1787
136.348500,1784
136.349000,1799
136.349500,1796
136.350000,1792
136.350500,1804
136.351000,1808
136.351500,1794
136.352000,1790
136.352500,1807
136.353000,1809
136.353500,1795
136.354000,1805
136.354500,1806
136.355000,1798
136.355500,1794
136.356000,1807
136.356500,1810
136.357000,1798
136.357500,1796
136.358000,1812
136.358500,1801
136.359000,1798
136.359500,1811
136.360000,1812
136.360500,1804
136.361000,1799
136.361500,1810
136.362000,1814
136.362500,1797
136.363000,1813
136.363500,1814
136.364000,1803
136.364500,1795
136.365000,1804
136.365500,1809
136.366000,1791
136.366500,1788
136.367000,1801
136.367500,1797
136.368000,1788
136.368500,1797
136.369000,1791
136.369500,1774
136.370000,1766
136.370500,1781
136.371000,1788
136.371500,1774
136.372000,1773
136.372500,1794
136.373000,1791
136.373500,1794
136.374000,1816
136.374500,1828
136.375000,1822
136.375500,1809
136.376000,1827
136.376500,1820
136.377000,1811
136.377500,1820
136.378000,1824
136.378500,1813
136.379000,1810
136.379500,1820
136.380000,1823
136.380500,1806
136.381000,1814
136.381500,1818
136.382000,1808
136.382500,1802
136.383000,1812
136.383500,1815
136.384000,1797
136.384500,1790
136.385000,1806
136.385500,1793
136.386000,1792
136.386500,1799
136.387000,1805
136.387500,1792
136.388000,1790
136.388500,1797
136.389000,1804
136.389500,1788
136.390000,1789
136.390500,1804
136.391000,1797
136.391500,1792
136.392000,1803
136.392500,1806
136.393000,1792
136.393500,1789
136.394000,1805
136.394500,1808
136.395000,1790
136.395500,1804
136.396000,1807
136.396500,1798
136.397000,1793
136.397500,1805
136.398000,1809
136.398500,1799
136.399000,1795
136.399500,1812
136.400000,1812
136.400500,1810
136.401000,1824
136.401500,1821
136.402000,1808
136.402500,1795
136.403000,1806
136.403500,1806
136.404000,1782
136.404500,1794
136.405000,1799
136.405500,1783
136.406000,1780
136.406500,1795
136.407000,1799
136.407500,1791
136.408000,1790
136.408500,1807
136.409000,1801
136.409500,1797
136.410000,1809
136.410500,1820
136.411000,1806
136.411500,1798
136.412000,1813
136.412500,1814
136.413000,1795
136.413500,1798
136.414000,1815
136.414500,1806
136.415000,1801
136.415500,1812
136.416000,1816
136.416500,1800
136.417000,1796
136.417500,1811
136.418000,1810
136.418500,1799
136.419000,1813
136.419500,1816
136.420000,1806
136.420500,1801
136.421000,1817
136.421500,1815
136.422000,1792
136.422500,1807
136.423000,1799
136.423500,1789
136.424000,1781
136.424500,1786
136.425000,1792
136.425500,1786
136.426000,1799
136.426500,1825
136.427000,1815
136.427500,1809
136.428000,1815
136.428500,1811
136.429000,1797
136.429500,1793
136.430000,1808
136.430500,1813
136.431000,1795
136.431500,1809
136.432000,1807
136.432500,1798
136.433000,1796
136.433500,1804
136.434000,1810
136.434500,1799
136.435000,1790
136.435500,1808
136.436000,1796
136.436500,1796
136.437000,1804
136.437500,1816
136.438000,1803
136.438500,1800
136.439000,1815
136.439500,1817
136.440000,1801
136.440500,1821
136.441000,1813
136.441500,1802
136.442000,1793
136.442500,1804
136.443000,1804
136.443500,1794
136.444000,1785
136.444500,1798
136.445000,1786
136.445500,1786
136.446000,1807
136.446500,1815
136.447000,1807
136.447500,1802
136.448000,1813
136.448500,1813
136.449000,1794
136.449500,1812
136.450000,1811
136.450500,1799
136.451000,1789
136.451500,1802
136.452000,1808
136.452500,1792
136.453000,1788
136.453500,1803
136.454000,1798
136.454500,1788
136.455000,1799
136.455500,1807
136.456000,1797
136.456500,1797
136.457000,1812
136.457500,1818
136.458000,1803
136.458500,1817
136.459000,1815
136.459500,1807
136.460000,1800
136.460500,1813
136.461000,1820
136.461500,1806
136.462000,1798
136.462500,1812
136.463000,1795
136.463500,1796
136.464000,1807
136.464500,1808
136.465000,1800
136.465500,1792
136.466000,1805
136.466500,1806
136.467000,1790
136.467500,1798
136.468000,1804
136.468500,1793
136.469000,1789
136.469500,1801
136.470000,1804
136.470500,1793
136.471000,1790
136.471500,1805
136.472000,1794
136.472500,1792
136.473000,1800
136.473500,1803
136.474000,1796
136.474500,1792
136.475000,1802
136.475500,1810
136.476000,1800
136.476500,1794
136.477000,1810
136.477500,1805
136.478000,1800
136.478500,1810
136.479000,1817
136.479500,1804
136.480000,1803
136.480500,1816
136.481000,1805
136.481500,1804
136.482000,1810
136.482500,1815
136.483000,1802
136.483500,1798
136.484000,1809
136.484500,1809
136.485000,1791
136.485500,1791
136.486000,1803
136.486500,1792
136.487000,1787
136.487500,1799
136.488000,1803
136.488500,1790
136.489000,1788
136.489500,1802
136.490000,1789
136.490500,1791
136.491000,1803
136.491500,1809
136.492000,1799
136.492500,1793
136.493000,1806
136.493500,1811
136.494000,1794
136.494500,1796
136.495000,1807
136.495500,1801
136.496000,1793
136.496500,1807
136.497000,1814
136.497500,1803
136.498000,1799
136.498500,1815
136.499000,1803
136.499500,1800
136.500000,1809
136.500500,1815
136.501000,1804
136.501500,1796
136.502000,1812
136.502500,1815
136.503000,1801
136.503500,1821
136.504000,1812
136.504500,1801
136.505000,1795
136.505500,1802
136.506000,1808
136.506500,1792
136.507000,1786
136.507500,1804
136.508000,1796
136.508500,1793
136.509000,1805
136.509500,1808
136.510000,1794
136.510500,1790
136.511000,1804
136.511500,1804
136.512000,1789
136.512500,1801
136.513000,1806
136.513500,1797
136.514000,1791
136.514500,1803
136.515000,1809
136.515500,1794
136.516000,1795
136.516500,1813
136.517000,1806
136.517500,1801
136.518000,1811
136.518500,1816
136.519000,1805
136.519500,1798
136.520000,1816
136.520500,1820
136.521000,1804
136.521500,1808
136.522000,1815
136.522500,1804
136.523000,1795
136.523500,1811
136.524000,1814
136.524500,1796
136.525000,1790
136.525500,1807
136.526000,1800
136.526500,1790
136.527000,1799
136.527500,1804
136.528000,1789
136.528500,1789
136.529000,1802
136.529500,1805
136.530000,1787
136.530500,1812
136.531000,1808
136.531500,1796
136.532000,1792
136.532500,1803
136.533000,1807
136.533500,1796
136.534000,1792
136.534500,1805
136.535000,1799
136.535500,1796
136.536000,1811
136.536500,1812
136.537000,1803
136.537500,1800
136.538000,1813
136.538500,1818
136.539000,1804
136.539500,1825
136.540000,1819
136.540500,1807
136.541000,1804
136.541500,1816
136.542000,1819
136.542500,1803
136.543000,1797
136.543500,1817
136.544000,1800
136.544500,1797
136.545000,1801
136.545500,1810
136.546000,1799
136.546500,1788
136.547000,1799
136.547500,1807
136.548000,1789
136.548500,1801
136.549000,1807
136.549500,1796
136.550000,1792
136.550500,1800
136.551000,1809
136.551500,1794
136.552000,1788
136.552500,1805
136.553000,1794
136.553500,1793
136.554000,1803
136.554500,1809
136.555000,1793
136.555500,1791
136.556000,1809
136.556500,1812
136.557000,1796
136.557500,1812
136.558000,1815
136.558500,1805
136.559000,1803
136.559500,1814
136.560000,1823
136.560500,1804
136.561000,1803
136.561500,1815
136.562000,1821
136.562500,1801
136.563000,1812
136.563500,1816
136.564000,1802
136.564500,1795
136.565000,1807
136.565500,1809
136.566000,1794
136.566500,1788
136.567000,1801
136.567500,1794
136.568000,1789
136.568500,1800
136.569000,1806
136.569500,1794
136.570000,1788
136.570500,1805
136.571000,1810
136.571500,1791
136.572000,1804
136.572500,1808
136.573000,1797
136.573500,1791
136.574000,1805
136.574500,1807
136.575000,1796
136.575500,1788
136.576000,1805
136.576500,1799
136.577000,1794
136.577500,1805
136.578000,1816
136.578500,1804
136.579000,1803
136.579500,1817
136.580000,1827
136.580500,1805
136.581000,1819
136.581500,1819
136.582000,1806
136.582500,1800
136.583000,1811
136.583500,1818
136.584000,1798
136.584500,1790
136.585000,1810
136.585500,1796
136.586000,1790
136.586500,1801
136.587000,1805
136.587500,1790
136.588000,1785
136.588500,1800
136.589000,1802
136.589500,1789
136.590000,1799
136.590500,1804
136.591000,1795
136.591500,1789
136.592000,1805
136.592500,1808
136.593000,1794
136.593500,1794
136.594000,1806
136.594500,1797
136.595000,1790
136.595500,1801
136.596000,1808
136.596500,1797
136.597000,1791
136.597500,1812
136.598000,1797
136.598500,1800
136.599000,1812
136.599500,1817
136.600000,1805
136.600500,1801
136.601000,1816
136.601500,1819
136.602000,1803
136.602500,1819
136.603000,1814
136.603500,1808
136.604000,1798
136.604500,1807
136.605000,1817
136.605500,1796
136.606000,1789
136.606500,1804
136.607000,1791
136.607500,1788
136.608000,1800
136.608500,1804
136.609000,1791
136.609500,1788
136.610000,1803
136.610500,1808
136.611000,1792
136.611500,1785
136.612000,1804
136.612500,1795
136.613000,1790
136.613500,1802
136.614000,1809
136.614500,1795
136.615000,1786
136.615500,1805
136.616000,1808
136.616500,1795
136.617000,1806
136.617500,1814
136.618000,1804
136.618500,1799
136.619000,1813
136.619500,1817
136.620000,1806
136.620500,1800
136.621000,1821
136.621500,1808
136.622000,1800
136.622500,1810
136.623000,1812
136.623500,1800
136.624000,1792
136.624500,1805
136.625000,1813
136.625500,1789
136.626000,1804
136.626500,1800
136.627000,1790
136.627500,1790
136.628000,1802
136.628500,1808
136.629000,1792
136.629500,1788
136.630000,1804
136.630500,1798
136.631000,1791
136.631500,1800
136.632000,1807
136.632500,1790
136.633000,1784
136.633500,1793
136.634000,1801
136.634500,1785
136.635000,1780
136.635500,1792
136.636000,1780
136.636500,1776
136.637000,1787
136.637500,1796
136.638000,1789
136.638500,1794
136.639000,1821
136.639500,1821
136.640000,1814
136.640500,1827
136.641000,1830
136.641500,1815
136.642000,1810
136.642500,1824
136.643000,1825
136.643500,1810
136.644000,1810
136.644500,1814
136.645000,1808
136.645500,1800
136.646000,1815
136.646500,1816
136.647000,1799
136.647500,1791
136.648000,1807
136.648500,1804
136.649000,1799
136.649500,1810
136.650000,1817
136.650500,1803
136.651000,1795
136.651500,1809
136.652000,1813
136.652500,1797
136.653000,1799
136.653500,1812
136.654000,1797
136.654500,1789
136.655000,1803
136.655500,1798
136.656000,1782
136.656500,1774
136.657000,1787
136.657500,1784
136.658000,1785
136.658500,1803
136.659000,1816
136.659500,1810
136.660000,1813
136.660500,1824
136.661000,1829
136.661500,1814
136.662000,1825
136.662500,1825
136.663000,1815
136.663500,1810
136.664000,1812
136.664500,1810
136.665000,1793
136.665500,1789
136.666000,1803
136.666500,1791
136.667000,1778
136.667500,1786
136.668000,1789
136.668500,1779
136.669000,1777
136.669500,1797
136.670000,1805
136.670500,1792
136.671000,1806
136.671500,1809
136.672000,1805
136.672500,1800
136.673000,1811
136.673500,1819
136.674000,1804
136.674500,1800
136.675000,1821
136.675500,1813
136.676000,1808
136.676500,1813
136.677000,1816
136.677500,1803
136.678000,1798
136.678500,1812
136.679000,1812
136.679500,1800
136.680000,1818
136.680500,1816
136.681000,1809
136.681500,1801
136.682000,1811
136.682500,1814
136.683000,1797
136.683500,1798
136.684000,1807
136.684500,1798
136.685000,1788
136.685500,1797
136.686000,1800
136.686500,1781
136.687000,1774
136.687500,1786
136.688000,1790
136.688500,1770
136.689000,1783
136.689500,1788
136.690000,1785
136.690500,1778
136.691000,1796
136.691500,1805
136.692000,1799
136.692500,1800
136.693000,1818
136.693500,1811
136.694000,1803
136.694500,1810
136.695000,1820
136.695500,1805
136.696000,1805
136.696500,1815
136.697000,1821
136.697500,1805
136.698000,1812
136.698500,1820
136.699000,1809
136.699500,1805
136.700000,1819
136.700500,1813
136.701000,1799
136.701500,1794
136.702000,1808
136.702500,1796
136.703000,1789
136.703500,1806
136.704000,1810
136.704500,1799
136.705000,1795
136.705500,1816
136.706000,1818
136.706500,1796
136.707000,1802
136.707500,1804
136.708000,1796
136.708500,1787
136.709000,1798
136.709500,1805
136.710000,1795
136.710500,1788
136.711000,1807
136.711500,1792
136.712000,1791
136.712500,1802
136.713000,1809
136.713500,1797
136.714000,1794
136.714500,1806
136.715000,1815
136.715500,1796
136.716000,1814
136.716500,1807
136.717000,1798
136.717500,1796
136.718000,1807
136.718500,1811
136.719000,1794
136.719500,1786
136.720000,1806
136.720500,1796
136.721000,1792
136.721500,1802
136.722000,1808
136.722500,1795
136.723000,1788
136.723500,1810
136.724000,1813
136.724500,1801
136.725000,1822
136.725500,1823
136.726000,1808
136.726500,1797
136.727000,1804
136.727500,1804
136.728000,1789
136.728500,1782
136.729000,1796
136.729500,1784
136.730000,1784
136.730500,1793
136.731000,1802
136.731500,1791
136.732000,1788
136.732500,1802
136.733000,1812
136.733500,1794
136.734000,1810
136.734500,1804
136.735000,1798
136.735500,1794
136.736000,1815
136.736500,1821
136.737000,1808
136.737500,1805
136.738000,1818
136.738500,1823
136.739000,1812
136.739500,1820
136.740000,1823
136.740500,1812
136.741000,1806
136.741500,1818
136.742000,1822
136.742500,1805
136.743000,1798
136.743500,1815
136.744000,1803
136.744500,1793
136.745000,1806
136.745500,1805
136.746000,1791
136.746500,1783
136.747000,1792
136.747500,1796
136.748000,1778
136.748500,1783
136.749000,1795
136.749500,1786
136.750000,1779
136.750500,1791
136.751000,1798
136.751500,1783
136.752000,1784
136.752500,1804
136.753000,1796
136.753500,1787
136.754000,1796
136.754500,1802
136.755000,1791
136.755500,1785
136.756000,1805
136.756500,1820
136.757000,1809
136.757500,1810
136.758000,1825
136.758500,1820
136.759000,1816
136.759500,1825
136.760000,1831
136.760500,1818
136.761000,1810
136.761500,1819
136.762000,1808
136.762500,1801
136.763000,1809
136.763500,1821
136.764000,1804
136.764500,1793
136.765000,1805
136.765500,1814
136.766000,1797
136.766500,1800
136.767000,1802
136.767500,1790
136.768000,1787
136.768500,1799
136.769000,1804
136.769500,1787
136.770000,1789
136.770500,1801
136.771000,1790
136.771500,1786
136.772000,1791
136.772500,1794
136.773000,1781
136.773500,1780
136.774000,1794
136.774500,1799
136.775000,1789
136.775500,1795
136.776000,1804
136.776500,1792
136.777000,1792
136.777500,1809
136.778000,1816
136.778500,1803
136.779000,1803
136.779500,1824
136.780000,1812
136.780500,1816
136.781000,1822
136.781500,1824
136.782000,1814
136.782500,1806
136.783000,1816
136.783500,1821
136.784000,1801
136.784500,1816
136.785000,1808
136.785500,1797
136.786000,1793
136.786500,1799
136.787000,1804
136.787500,1788
136.788000,1785
136.788500,1801
136.789000,1792
136.789500,1791
136.790000,1807
136.790500,1809
136.791000,1800
136.791500,1789
136.792000,1803
136.792500,1805
136.793000,1793
136.793500,1791
136.794000,1804
136.794500,1797
136.795000,1793
136.795500,1804
136.796000,1813
136.796500,1800
136.797000,1796
136.797500,1810
136.798000,1816
136.798500,1799
136.799000,1804
136.799500,1813
136.800000,1811
136.800500,1803
136.801000,1816
136.801500,1816
136.802000,1803
136.802500,1796
136.803000,1808
136.803500,1807
136.804000,1795
136.804500,1804
136.805000,1807
136.805500,1797
136.806000,1791
136.806500,1801
136.807000,1804
136.807500,1785
136.808000,1785
136.808500,1797
136.809000,1789
136.809500,1784
136.810000,1801
136.810500,1802
136.811000,1793
136.811500,1786
136.812000,1804
136.812500,1797
136.813000,1793
136.813500,1804
136.814000,1810
136.814500,1796
136.815000,1795
136.815500,1806
136.816000,1815
136.816500,1797
136.817000,1818
136.817500,1807
136.818000,1796
136.818500,1790
136.819000,1800
136.819500,1808
136.820000,1794
136.820500,1792
136.821000,1809
136.821500,1802
136.822000,1801
136.822500,1814
136.823000,1825
136.823500,1824
136.824000,1814
136.824500,1824
136.825000,1827
136.825500,1802
136.826000,1817
136.826500,1805
136.827000,1793
136.827500,1787
136.828000,1795
136.828500,1800
136.829000,1787
136.829500,1784
136.830000,1799
136.830500,1791
136.831000,1787
136.831500,1795
136.832000,1802
136.832500,1791
136.833000,1788
136.833500,1801
136.834000,1808
136.834500,1790
136.835000,1795
136.835500,1807
136.836000,1802
136.836500,1794
136.837000,1806
136.837500,1817
136.838000,1803
136.838500,1801
136.839000,1817
136.839500,1820
136.840000,1796
136.840500,1810
136.841000,1814
136.841500,1799
136.842000,1796
136.842500,1808
136.843000,1812
136.843500,1799
136.844000,1791
136.844500,1810
136.845000,1808
136.845500,1801
136.846000,1812
136.846500,1817
136.847000,1804
136.847500,1795
136.848000,1809
136.848500,1810
136.849000,1790
136.849500,1792
136.850000,1806
136.850500,1795
136.851000,1789
136.851500,1801
136.852000,1807
136.852500,1792
136.853000,1788
136.853500,1804
136.854000,1800
136.854500,1792
136.855000,1799
136.855500,1804
136.856000,1797
136.856500,1790
136.857000,1806
136.857500,1812
136.858000,1799
136.858500,1802
136.859000,1814
136.859500,1805
136.860000,1800
136.860500,1813
136.861000,1820
136.861500,1804
136.862000,1798
136.862500,1812
136.863000,1798
136.863500,1798
136.864000,1803
136.864500,1806
136.865000,1789
136.865500,1788
136.866000,1802
136.866500,1804
136.867000,1790
136.867500,1787
136.868000,1797
136.868500,1794
136.869000,1789
136.869500,1799
136.870000,1810
136.870500,1794
136.871000,1789
136.871500,1802
136.872000,1809
136.872500,1792
136.873000,1798
136.873500,1815
136.874000,1804
136.874500,1796
136.875000,1812
136.875500,1812
136.876000,1799
136.876500,1793
136.877000,1809
136.877500,1804
136.878000,1799
136.878500,1809
136.879000,1818
136.879500,1805
136.880000,1803
136.880500,1814
136.881000,1819
136.881500,1802
136.882000,1806
136.882500,1814
136.883000,1804
136.883500,1803
136.884000,1809
136.884500,1811
136.885000,1799
136.885500,1788
136.886000,1804
136.886500,1798
136.887000,1790
136.887500,1800
136.888000,1803
136.888500,1790
136.889000,1785
136.889500,1801
136.890000,1808
136.890500,1787
136.891000,1792
136.891500,1802
136.892000,1792
136.892500,1786
136.893000,1799
136.893500,1804
136.894000,1793
136.894500,1788
136.895000,1807
136.895500,1802
136.896000,1795
136.896500,1808
136.897000,1813
136.897500,1804
136.898000,1798
136.898500,1812
136.899000,1818
136.899500,1800
136.900000,1804
136.900500,1818
136.901000,1810
136.901500,1803
136.902000,1816
136.902500,1818
136.903000,1802
136.903500,1802
136.904000,1809
136.904500,1802
136.905000,1796
136.905500,1809
136.906000,1811
136.906500,1793
136.907000,1790
136.907500,1801
136.908000,1805
136.908500,1789
136.909000,1806
136.909500,1802
136.910000,1799
136.910500,1790
136.911000,1802
136.911500,1807
136.912000,1793
136.912500,1789
136.913000,1805
136.913500,1793
136.914000,1792
136.914500,1800
136.915000,1812
136.915500,1795
136.916000,1794
136.916500,1806
136.917000,1812
136.917500,1799
136.918000,1795
136.918500,1811
136.919000,1809
136.919500,1802
136.920000,1816
136.920500,1819
136.921000,1806
136.921500,1798
136.922000,1813
136.922500,1818
136.923000,1798
136.923500,1812
136.924000,1810
136.924500,1800
136.925000,1798
136.925500,1803
136.926000,1808
136.926500,1793
136.927000,1786
136.927500,1799
136.928000,1795
136.928500,1789
136.929000,1797
136.929500,1803
136.930000,1794
136.930500,1788
136.931000,1806
136.931500,1807
136.932000,1791
136.932500,1798
136.933000,1807
136.933500,1798
136.934000,1793
136.934500,1802
136.935000,1809
136.935500,1797
136.936000,1795
136.936500,1807
136.937000,1804
136.937500,1798
136.938000,1809
136.938500,1815
136.939000,1806
136.939500,1800
136.940000,1819
136.940500,1821
136.941000,1805
136.941500,1811
136.942000,1816
136.942500,1805
136.943000,1797
136.943500,1814
136.944000,1811
136.944500,1796
136.945000,1789
136.945500,1804
136.946000,1796
136.946500,1788
136.947000,1799
136.947500,1804
136.948000,1790
136.948500,1785
136.949000,1801
136.949500,1806
136.950000,1795
136.950500,1800
136.951000,1802
136.951500,1795
136.952000,1790
136.952500,1803
136.953000,1808
136.953500,1795
136.954000,1792
136.954500,1809
136.955000,1800
136.955500,1794
136.956000,1806
136.956500,1813
136.957000,1799
136.957500,1798
136.958000,1812
136.958500,1818
136.959000,1804
136.959500,1827
136.960000,1821
136.960500,1807
136.961000,1803
136.961500,1812
136.962000,1819
136.962500,1801
136.963000,1796
136.963500,1815
136.964000,1794
136.964500,1794
136.965000,1802
136.965500,1807
136.966000,1794
136.966500,1789
136.967000,1800
136.967500,1803
136.968000,1785
136.968500,1784
136.969000,1800
136.969500,1792
136.970000,1791
136.970500,1800
136.971000,1807
136.971500,1793
136.972000,1789
136.972500,1804
136.973000,1804
136.973500,1793
136.974000,1802
136.974500,1804
136.975000,1798
136.975500,1793
136.976000,1810
136.976500,1812
136.977000,1804
136.977500,1800
136.978000,1815
136.978500,1808
136.979000,1802
136.979500,1815
136.980000,1825
136.980500,1809
136.981000,1803
136.981500,1817
136.982000,1820
136.982500,1801
136.983000,1811
136.983500,1814
136.984000,1800
136.984500,1792
136.985000,1803
136.985500,1809
136.986000,1791
136.986500,1786
136.987000,1802
136.987500,1794
136.988000,1788
136.988500,1802
136.989000,1805
136.989500,1789
136.990000,1790
136.990500,1804
136.991000,1809
136.991500,1792
136.992000,1799
136.992500,1806
136.993000,1796
136.993500,1793
136.994000,1804
136.994500,1807
136.995000,1795
136.995500,1788
136.996000,1803
136.996500,1802
136.997000,1797
136.997500,1808
136.998000,1814
136.998500,1805
136.999000,1802
136.999500,1816
137.000000,1825
137.000500,1808
137.001000,1812
137.001500,1817
137.002000,1806
137.002500,1798
137.003000,1812
137.003500,1818
137.004000,1800
137.004500,1790
137.005000,1808
137.005500,1798
137.006000,1791
137.006500,1797
137.007000,1802
137.007500,1790
137.008000,1785
137.008500,1801
137.009000,1807
137.009500,1791
137.010000,1792
137.010500,1807
137.011000,1796
137.011500,1790
137.012000,1804
137.012500,1806
137.013000,1793
137.013500,1788
137.014000,1804
137.014500,1797
137.015000,1796
137.015500,1802
137.016000,1811
137.016500,1797
137.017000,1796
137.017500,1812
137.018000,1817
137.018500,1800
137.019000,1804
137.019500,1817
137.020000,1811
137.020500,1802
137.021000,1816
137.021500,1818
137.022000,1802
137.022500,1797
137.023000,1811
137.023500,1812
137.024000,1797
137.024500,1807
137.025000,1812
137.025500,1796
137.026000,1793
137.026500,1803
137.027000,1810
137.027500,1792
137.028000,1792
137.028500,1800
137.029000,1795
137.029500,1789
137.030000,1802
137.030500,1808
137.031000,1795
137.031500,1790
137.032000,1805
137.032500,1796
137.033000,1793
137.033500,1805
137.034000,1809
137.034500,1796
137.035000,1793
137.035500,1808
137.036000,1814
137.036500,1797
137.037000,1805
137.037500,1814
137.038000,1804
137.038500,1801
137.039000,1813
137.039500,1817
137.040000,1811
137.040500,1802
137.041000,1817
137.041500,1815
137.042000,1803
137.042500,1812
137.043000,1814
137.043500,1806
137.044000,1797
137.044500,1808
137.045000,1814
137.045500,1793
137.046000,1789
137.046500,1803
137.047000,1795
137.047500,1785
137.048000,1798
137.048500,1801
137.049000,1790
137.049500,1785
137.050000,1802
137.050500,1809
137.051000,1792
137.051500,1799
137.052000,1805
137.052500,1795
137.053000,1791
137.053500,1808
137.054000,1810
137.054500,1793
137.055000,1789
137.055500,1804
137.056000,1806
137.056500,1797
137.057000,1812
137.057500,1817
137.058000,1804
137.058500,1800
137.059000,1814
137.059500,1818
137.060000,1805
137.060500,1827
137.061000,1820
137.061500,1806
137.062000,1800
137.062500,1812
137.063000,1819
137.063500,1804
137.064000,1794
137.064500,1805
137.065000,1796
137.065500,1790
137.066000,1801
137.066500,1802
137.067000,1791
137.067500,1784
137.068000,1800
137.068500,1806
137.069000,1788
137.069500,1810
137.070000,1807
137.070500,1795
137.071000,1792
137.071500,1799
137.072000,1807
137.072500,1796
137.073000,1790
137.073500,1808
137.074000,1798
137.074500,1792
137.075000,1805
137.075500,1809
137.076000,1801
137.076500,1796
137.077000,1809
137.077500,1815
137.078000,1800
137.078500,1800
137.079000,1817
137.079500,1805
137.080000,1798
137.080500,1818
137.081000,1823
137.081500,1807
137.082000,1801
137.082500,1812
137.083000,1803
137.083500,1804
137.084000,1809
137.084500,1813
137.085000,1794
137.085500,1793
137.086000,1805
137.086500,1809
137.087000,1791
137.087500,1800
137.088000,1804
137.088500,1791
137.089000,1787
137.089500,1802
137.090000,1809
137.090500,1792
137.091000,1813
137.091500,1807
137.092000,1799
137.092500,1794
137.093000,1804
137.093500,1811
137.094000,1794
137.094500,1786
137.095000,1806
137.095500,1800
137.096000,1792
137.096500,1805
137.097000,1812
137.097500,1801
137.098000,1797
137.098500,1813
137.099000,1818
137.099500,1799
137.100000,1804
137.100500,1818
137.101000,1810
137.101500,1801
137.102000,1813
137.102500,1818
137.103000,1803
137.103500,1798
137.104000,1811
137.104500,1797
137.105000,1799
137.105500,1802
137.106000,1808
137.106500,1794
137.107000,1789
137.107500,1803
137.108000,1783
137.108500,1786
137.109000,1797
137.109500,1802
137.110000,1794
137.110500,1791
137.111000,1808
137.111500,1807
137.112000,1790
137.112500,1807
137.113000,1807
137.113500,1797
137.114000,1790
137.114500,1803
137.115000,1811
137.115500,1794
137.116000,1793
137.116500,1804
137.117000,1803
137.117500,1798
137.118000,1810
137.118500,1816
137.119000,1804
137.119500,1800
137.120000,1814
137.120500,1822
137.121000,1806
137.121500,1819
137.122000,1818
137.122500,1806
137.123000,1799
137.123500,1814
137.124000,1813
137.124500,1796
137.125000,1800
137.125500,1812
137.126000,1800
137.126500,1786
137.127000,1799
137.127500,1804
137.128000,1788
137.128500,1784
137.129000,1801
137.129500,1789
137.130000,1791
137.130500,1800
137.131000,1807
137.131500,1795
137.132000,1790
137.132500,1805
137.133000,1808
137.133500,1793
137.134000,1817
137.134500,1805
137.135000,1794
137.135500,1791
137.136000,1805
137.136500,1808
137.137000,1797
137.137500,1793
137.138000,1809
137.138500,1804
137.139000,1802
137.139500,1812
137.140000,1816
137.140500,1808
137.141000,1803
137.141500,1817
137.142000,1802
137.142500,1799
137.143000,1810
137.143500,1815
137.144000,1799
137.144500,1792
137.145000,1804
137.145500,1808
137.146000,1791
137.146500,1790
137.147000,1803
137.147500,1793
137.148000,1789
137.148500,1801
137.149000,1802
137.149500,1794
137.150000,1790
137.150500,1804
137.151000,1800
137.151500,1792
137.152000,1801
137.152500,1807
137.153000,1793
137.153500,1792
137.154000,1806
137.154500,1807
137.155000,1788
137.155500,1804
137.156000,1809
137.156500,1797
137.157000,1797
137.157500,1811
137.158000,1814
137.158500,1802
137.159000,1801
137.159500,1816
137.160000,1809
137.160500,1804
137.161000,1817
137.161500,1817
137.162000,1804
137.162500,1798
137.163000,1812
137.163500,1799
137.164000,1797
137.164500,1803
137.165000,1810
137.165500,1796
137.166000,1790
137.166500,1803
137.167000,1804
137.167500,1788
137.168000,1811
137.168500,1804
137.169000,1794
137.169500,1789
137.170000,1804
137.170500,1805
137.171000,1792
137.171500,1787
137.172000,1808
137.172500,1798
137.173000,1792
137.173500,1807
137.174000,1807
137.174500,1793
137.175000,1790
137.175500,1802
137.176000,1813
137.176500,1796
137.177000,1801
137.177500,1813
137.178000,1803
137.178500,1800
137.179000,1812
137.179500,1817
137.180000,1807
137.180500,1801
137.181000,1817
137.181500,1811
137.182000,1803
137.182500,1813
137.183000,1818
137.183500,1807
137.184000,1797
137.184500,1807
137.185000,1810
137.185500,1795
137.186000,1804
137.186500,1805
137.187000,1792
137.187500,1785
137.188000,1798
137.188500,1804
137.189000,1789
137.189500,1786
137.190000,1803
137.190500,1798
137.191000,1795
137.191500,1802
137.192000,1809
137.192500,1793
137.193000,1789
137.193500,1809
137.194000,1795
137.194500,1789
137.195000,1803
137.195500,1805
137.196000,1797
137.196500,1791
137.197000,1808
137.197500,1814
137.198000,1800
137.198500,1804
137.199000,1818
137.199500,1805
137.200000,1808
137.200500,1817
137.201000,1822
137.201500,1807
137.202000,1800
137.202500,1813
137.203000,1809
137.203500,1803
137.204000,1807
137.204500,1809
137.205000,1796
137.205500,1790
137.206000,1805
137.206500,1807
137.207000,1788
137.207500,1789
137.208000,1802
137.208500,1791
137.209000,1786
137.209500,1801
137.210000,1806
137.210500,1791
137.211000,1788
137.211500,1801
137.212000,1793
137.212500,1791
137.213000,1800
137.213500,1808
137.214000,1795
137.214500,1786
137.215000,1802
137.215500,1807
137.216000,1793
137.216500,1807
137.217000,1810
137.217500,1801
137.218000,1797
137.218500,1812
137.219000,1818
137.219500,1806
137.220000,1801
137.220500,1821
137.221000,1814
137.221500,1805
137.222000,1816
137.222500,1819
137.223000,1803
137.223500,1800
137.224000,1812
137.224500,1800
137.225000,1796
137.225500,1805
137.226000,1809
137.226500,1792
137.227000,1786
137.227500,1801
137.228000,1804
137.228500,1791
137.229000,1789
137.229500,1803
137.230000,1792
137.230500,1788
137.231000,1803
137.231500,1809
137.232000,1793
137.232500,1788
137.233000,1806
137.233500,1798
137.234000,1791
137.234500,1802
137.235000,1809
137.235500,1792
137.236000,1795
137.236500,1805
137.237000,1813
137.237500,1799
137.238000,1812
137.238500,1817
137.239000,1805
137.239500,1800
137.240000,1816
137.240500,1821
137.241000,1803
137.241500,1799
137.242000,1818
137.242500,1808
137.243000,1803
137.243500,1815
137.244000,1814
137.244500,1797
137.245000,1789
137.245500,1806
137.246000,1793
137.246500,1788
137.247000,1802
137.247500,1803
137.248000,1791
137.248500,1785
137.249000,1797
137.249500,1803
