# Subject: DANNY
# Trial: no_ref
# Notes: 
# Muscles: Ch1
# fs=2000 Hz, nch=1, vref=3.3 V
t_s,ch1_code
195.705000,206
195.705500,2214
195.706000,2726
195.706500,1479
195.707000,2736
195.707500,0
195.708000,2091
195.708500,1873
195.709000,2561
195.709500,2736
195.710000,2746
195.710500,1582
195.711000,1847
195.711500,2193
195.712000,2483
195.712500,1268
195.713000,2591
195.713500,948
195.714000,2629
195.714500,2660
195.715000,1432
195.715500,2378
195.716000,2643
195.716500,1398
195.717000,0
195.717500,0
195.718000,0
195.718500,1311
195.719000,1883
195.719500,3021
195.720000,1857
195.720500,2740
195.721000,2693
195.721500,2177
195.722000,1026
195.722500,2915
195.723000,1862
195.723500,2858
195.724000,2649
195.724500,2741
195.725000,2556
195.725500,2515
195.726000,1237
195.726500,1678
195.727000,2083
195.727500,0
195.728000,0
195.728500,2856
195.729000,2853
195.729500,2110
195.730000,2733
195.730500,2610
195.731000,2716
195.731500,1906
195.732000,2448
195.732500,2517
195.733000,2311
195.733500,1908
195.734000,2689
195.734500,2596
195.735000,867
195.735500,2471
195.736000,2694
195.736500,1967
195.737000,0
195.737500,0
195.738000,0
195.738500,1560
195.739000,1568
195.739500,2966
195.740000,0
195.740500,2875
195.741000,1493
195.741500,2400
195.742000,2951
195.742500,2718
195.743000,1419
195.743500,2798
195.744000,0
195.744500,2275
195.745000,8
195.745500,2171
195.746000,1734
195.746500,0
195.747000,1455
195.747500,0
195.748000,402
195.748500,2802
195.749000,0
195.749500,2838
195.750000,2649
195.750500,1619
195.751000,1946
195.751500,1872
195.752000,1692
195.752500,2601
195.753000,1041
195.753500,2215
195.754000,1162
195.754500,2107
195.755000,2175
195.755500,2677
195.756000,2612
195.756500,1350
195.757000,0
195.757500,0
195.758000,344
195.758500,672
195.759000,3023
195.759500,1793
195.760000,3071
195.760500,2804
195.761000,3016
195.761500,1182
195.762000,2299
195.762500,2647
195.763000,2406
195.763500,2081
195.764000,2808
195.764500,2720
195.765000,2338
195.765500,2599
195.766000,2740
195.766500,0
195.767000,681
195.767500,0
195.768000,0
195.768500,1479
195.769000,2842
195.769500,2834
195.770000,0
195.770500,2492
195.771000,2733
195.771500,620
195.772000,2617
195.772500,2633
195.773000,1786
195.773500,0
195.774000,2432
195.774500,781
195.775000,0
195.775500,589
195.776000,2687
195.776500,2356
195.777000,0
195.777500,0
195.778000,0
195.778500,1000
195.779000,2107
195.779500,2685
195.780000,1611
195.780500,1012
195.781000,2271
195.781500,2771
195.782000,2563
195.782500,2896
195.783000,2574
195.783500,1902
195.784000,2835
195.784500,2737
195.785000,2586
195.785500,890
195.786000,1506
195.786500,2080
195.787000,2756
195.787500,0
195.788000,0
195.788500,2031
195.789000,2879
195.789500,2879
195.790000,2307
195.790500,2770
195.791000,2755
195.791500,1918
195.792000,2408
195.792500,1698
195.793000,1868
195.793500,2465
195.794000,2696
195.794500,1144
195.795000,1708
195.795500,2264
195.796000,2646
195.796500,1203
195.797000,0
195.797500,0
195.798000,0
195.798500,260
195.799000,0
195.799500,2502
195.800000,2778
195.800500,3046
195.801000,2918
195.801500,2306
195.802000,2747
195.802500,2950
195.803000,1946
195.803500,2689
195.804000,2838
195.804500,2174
195.805000,778
195.805500,1959
195.806000,2715
195.806500,1647
195.807000,1781
195.807500,0
195.808000,0
195.808500,2312
195.809000,0
195.809500,2044
195.810000,2323
195.810500,1842
195.811000,2238
195.811500,1586
195.812000,2551
195.812500,2002
195.813000,1839
195.813500,1620
195.814000,2646
195.814500,2396
195.815000,2602
195.815500,2557
195.816000,2706
195.816500,1994
195.817000,0
195.817500,0
195.818000,0
195.818500,2958
195.819000,2758
195.819500,3029
195.820000,3052
195.820500,2314
195.821000,2998
195.821500,2976
195.822000,2274
195.822500,1943
195.823000,2358
195.823500,1791
195.824000,2846
195.824500,2410
195.825000,2758
195.825500,2778
195.826000,1511
195.826500,1092
195.827000,2458
195.827500,0
195.828000,0
195.828500,1918
195.829000,2938
195.829500,2018
195.830000,2403
195.830500,2876
195.831000,2714
195.831500,1938
195.832000,2598
195.832500,2792
195.833000,1743
195.833500,1112
195.834000,2699
195.834500,2382
195.835000,527
195.835500,2692
195.836000,2629
195.836500,1778
195.837000,0
195.837500,0
195.838000,0
195.838500,0
195.839000,2344
195.839500,515
195.840000,1875
195.840500,3040
195.841000,3031
195.841500,2256
195.842000,2790
195.842500,2388
195.843000,1486
195.843500,2733
195.844000,2737
195.844500,2084
195.845000,1726
195.845500,0
195.846000,2494
195.846500,2449
195.847000,2619
195.847500,0
195.848000,0
195.848500,1679
195.849000,2886
195.849500,2884
195.850000,1028
195.850500,2819
195.851000,2825
195.851500,1853
195.852000,2457
195.852500,2666
195.853000,2360
195.853500,759
195.854000,2634
195.854500,1987
195.855000,2662
195.855500,2387
195.856000,2705
195.856500,2516
195.857000,0
195.857500,0
195.858000,0
195.858500,0
195.859000,1132
195.859500,3060
195.860000,1587
195.860500,2983
195.861000,2839
195.861500,2720
195.862000,2919
195.862500,1720
195.863000,2504
195.863500,17
195.864000,2833
195.864500,2581
195.865000,2701
195.865500,2573
195.866000,1972
195.866500,1991
195.867000,2506
195.867500,0
195.868000,0
195.868500,2491
195.869000,2862
195.869500,2100
195.870000,1964
195.870500,2816
195.871000,2079
195.871500,2720
195.872000,2697
195.872500,2734
195.873000,2695
195.873500,2641
195.874000,2715
195.874500,541
195.875000,1743
195.875500,694
195.876000,2614
195.876500,1183
195.877000,0
195.877500,0
195.878000,0
195.878500,452
195.879000,1448
195.879500,1815
195.880000,2967
195.880500,1541
195.881000,1314
195.881500,2956
195.882000,0
195.882500,2912
195.883000,1438
195.883500,2650
195.884000,1821
195.884500,1605
195.885000,1800
195.885500,1858
195.886000,0
195.886500,2464
195.887000,1989
195.887500,113
195.888000,0
195.888500,1215
195.889000,2524
195.889500,1770
195.890000,2206
195.890500,2854
195.891000,2788
195.891500,2682
195.892000,2763
195.892500,1627
195.893000,2240
195.893500,2599
195.894000,2625
195.894500,2562
195.895000,2544
195.895500,2645
195.896000,1970
195.896500,1181
195.897000,0
195.897500,0
195.898000,0
195.898500,0
195.899000,3054
195.899500,2162
195.900000,3026
195.900500,2896
195.901000,3038
195.901500,2830
195.902000,2973
195.902500,2510
195.903000,2610
195.903500,1149
195.904000,2786
195.904500,2385
195.905000,2756
195.905500,2686
195.906000,2208
195.906500,1760
195.907000,2654
195.907500,847
195.908000,0
195.908500,1622
195.909000,2783
195.909500,2424
195.910000,1261
195.910500,2008
195.911000,2734
195.911500,2246
195.912000,2643
195.912500,565
195.913000,1576
195.913500,1238
195.914000,2334
195.914500,2615
195.915000,2474
195.915500,2506
195.916000,2286
195.916500,2624
195.917000,0
195.917500,0
195.918000,0
195.918500,2500
195.919000,2388
195.919500,2891
195.920000,2982
195.920500,2965
195.921000,2953
195.921500,2621
195.922000,2923
195.922500,2902
195.923000,2738
195.923500,2871
195.924000,2678
195.924500,1646
195.925000,2731
195.925500,2128
195.926000,2035
195.926500,2574
195.927000,2352
195.927500,0
195.928000,0
195.928500,2933
195.929000,2450
195.929500,2253
195.930000,1707
195.930500,2826
195.931000,2548
195.931500,750
195.932000,2746
195.932500,2137
195.933000,2494
195.933500,2678
195.934000,2450
195.934500,2105
195.935000,2609
195.935500,2585
195.936000,2711
195.936500,1388
195.937000,0
195.937500,0
195.938000,0
195.938500,0
195.939000,2168
195.939500,2991
195.940000,0
195.940500,3126
195.941000,2992
195.941500,1183
195.942000,1865
195.942500,2367
195.943000,1924
195.943500,2835
195.944000,2090
195.944500,2333
195.945000,2464
195.945500,2215
195.946000,2551
195.946500,1551
195.947000,2242
195.947500,117
195.948000,0
195.948500,2870
195.949000,2600
195.949500,2698
195.950000,2098
195.950500,2242
195.951000,2693
195.951500,2755
195.952000,2677
195.952500,2673
195.953000,2042
195.953500,1834
195.954000,2022
195.954500,2144
195.955000,2672
195.955500,2638
195.956000,1798
195.956500,0
195.957000,0
195.957500,0
195.958000,0
195.958500,0
195.959000,2200
195.959500,1945
195.960000,1930
195.960500,2268
195.961000,2939
195.961500,2972
195.962000,2896
195.962500,434
195.963000,2564
195.963500,1782
195.964000,2597
195.964500,1913
195.965000,2658
195.965500,1487
195.966000,1424
195.966500,1542
195.967000,2666
195.967500,378
195.968000,0
195.968500,2882
195.969000,1748
195.969500,2281
195.970000,2676
195.970500,2203
195.971000,2486
195.971500,0
195.972000,2758
195.972500,2194
195.973000,2224
195.973500,2472
195.974000,0
195.974500,1894
195.975000,2665
195.975500,2302
195.976000,410
195.976500,704
195.977000,0
195.977500,0
195.978000,315
195.978500,0
195.979000,1810
195.979500,1430
195.980000,2780
195.980500,3049
195.981000,2966
195.981500,2976
195.982000,2502
195.982500,2842
195.983000,75
195.983500,2776
195.984000,0
195.984500,2116
195.985000,2823
195.985500,1331
195.986000,2503
195.986500,1699
195.987000,1938
195.987500,0
195.988000,0
195.988500,1360
195.989000,1921
195.989500,2350
195.990000,1085
195.990500,2134
195.991000,2149
195.991500,2800
195.992000,2731
195.992500,2695
195.993000,0
195.993500,1338
195.994000,1661
195.994500,2650
195.995000,1930
195.995500,978
195.996000,1597
195.996500,227
195.997000,0
195.997500,0
195.998000,0
195.998500,0
195.999000,0
195.999500,893
196.000000,3025
196.000500,2401
196.001000,2141
196.001500,2881
196.002000,2139
196.002500,2121
196.003000,1823
196.003500,2743
196.004000,2874
196.004500,2839
196.005000,2779
196.005500,0
196.006000,2001
196.006500,2702
196.007000,1746
196.007500,465
196.008000,0
196.008500,2299
196.009000,2754
196.009500,200
196.010000,2734
196.010500,2634
196.011000,2356
196.011500,2715
196.012000,2492
196.012500,1650
196.013000,2721
196.013500,1878
196.014000,2404
196.014500,1299
196.015000,918
196.015500,2040
196.016000,1599
196.016500,2570
196.017000,0
196.017500,0
196.018000,0
196.018500,0
196.019000,2059
196.019500,1558
196.020000,1914
196.020500,2318
196.021000,2427
196.021500,3039
196.022000,1875
196.022500,2104
196.023000,2890
196.023500,2169
196.024000,2038
196.024500,1762
196.025000,2359
196.025500,2504
196.026000,2241
196.026500,2732
196.027000,1436
196.027500,1466
196.028000,0
196.028500,1695
196.029000,2566
196.029500,2638
196.030000,2064
196.030500,2581
196.031000,2655
196.031500,2754
196.032000,2570
196.032500,2692
196.033000,1476
196.033500,2672
196.034000,2190
196.034500,1777
196.035000,2621
196.035500,792
196.036000,2652
196.036500,358
196.037000,0
196.037500,0
196.038000,0
196.038500,145
196.039000,2764
196.039500,702
196.040000,1973
196.040500,3000
196.041000,2875
196.041500,2960
196.042000,2535
196.042500,2894
196.043000,2877
196.043500,2522
196.044000,2550
196.044500,2699
196.045000,2377
196.045500,2097
196.046000,0
196.046500,2275
196.047000,1973
196.047500,1195
196.048000,0
196.048500,2084
196.049000,2702
196.049500,2784
196.050000,1584
196.050500,2358
196.051000,2578
196.051500,1754
196.052000,446
196.052500,1894
196.053000,2686
196.053500,976
196.054000,2118
196.054500,2665
196.055000,1514
196.055500,2500
196.056000,2642
196.056500,1320
196.057000,661
196.057500,0
196.058000,0
196.058500,139
196.059000,146
196.059500,1480
196.060000,1602
196.060500,1607
196.061000,2033
196.061500,2962
196.062000,2727
196.062500,2881
196.063000,2826
196.063500,2803
196.064000,1876
196.064500,2662
196.065000,2753
196.065500,2390
196.066000,2649
196.066500,2668
196.067000,1780
196.067500,613
196.068000,0
196.068500,2194
196.069000,2128
196.069500,60
196.070000,1134
196.070500,2073
196.071000,2048
196.071500,2698
196.072000,2278
196.072500,2561
196.073000,1704
196.073500,1506
196.074000,2229
196.074500,0
196.075000,1284
196.075500,2572
196.076000,2475
196.076500,2452
196.077000,0
196.077500,0
196.078000,240
196.078500,0
196.079000,2500
196.079500,3038
196.080000,2350
196.080500,2587
196.081000,2882
196.081500,2930
196.082000,2841
196.082500,2928
196.083000,2611
196.083500,0
196.084000,2654
196.084500,2248
196.085000,1266
196.085500,2192
196.086000,2314
196.086500,2272
196.087000,2606
196.087500,1367
196.088000,0
196.088500,2656
196.089000,1570
196.089500,2789
196.090000,706
196.090500,2306
196.091000,2800
196.091500,2626
196.092000,2682
196.092500,1412
196.093000,2651
196.093500,1124
196.094000,1826
196.094500,2679
196.095000,2133
196.095500,2645
196.096000,2618
196.096500,2583
196.097000,0
196.097500,0
196.098000,0
196.098500,0
196.099000,2457
196.099500,1522
196.100000,6
196.100500,2447
196.101000,2721
196.101500,1972
196.102000,2053
196.102500,244
196.103000,2782
196.103500,2448
196.104000,2070
196.104500,1453
196.105000,1527
196.105500,2720
196.106000,1596
196.106500,466
196.107000,2672
196.107500,1723
196.108000,0
196.108500,2790
196.109000,2362
196.109500,2759
196.110000,0
196.110500,2016
196.111000,2803
196.111500,1970
196.112000,1357
196.112500,811
196.113000,2671
196.113500,2554
196.114000,2623
196.114500,1737
196.115000,1626
196.115500,1054
196.116000,2574
196.116500,1734
196.117000,964
196.117500,0
196.118000,1181
196.118500,0
196.119000,2672
196.119500,2589
196.120000,2994
196.120500,2842
196.121000,2960
196.121500,2163
196.122000,1776
196.122500,2896
196.123000,2657
196.123500,2836
196.124000,2796
196.124500,2794
196.125000,2476
196.125500,2368
196.126000,0
196.126500,2177
196.127000,2508
196.127500,0
196.128000,0
196.128500,2350
196.129000,430
196.129500,2862
196.130000,2730
196.130500,2382
196.131000,613
196.131500,1691
196.132000,1953
196.132500,2686
196.133000,2460
196.133500,2418
196.134000,2501
196.134500,2582
196.135000,2203
196.135500,1595
196.136000,2635
196.136500,2307
196.137000,796
196.137500,0
196.138000,0
196.138500,0
196.139000,1674
196.139500,1778
196.140000,2662
196.140500,2788
196.141000,2894
196.141500,2913
196.142000,2383
196.142500,1718
196.143000,2073
196.143500,2730
196.144000,1884
196.144500,2730
196.145000,0
196.145500,718
196.146000,2760
196.146500,1499
196.147000,1608
196.147500,1976
196.148000,0
196.148500,2528
196.149000,2820
196.149500,1983
196.150000,1814
196.150500,2640
196.151000,2668
196.151500,2718
196.152000,1577
196.152500,1164
196.153000,2390
196.153500,2572
196.154000,1941
196.154500,2604
196.155000,2603
196.155500,2474
196.156000,2567
196.156500,2567
196.157000,2327
196.157500,0
196.158000,0
196.158500,0
196.159000,0
196.159500,1611
196.160000,0
196.160500,2522
196.161000,2112
196.161500,2573
196.162000,2878
196.162500,2184
196.163000,2829
196.163500,1858
196.164000,2302
196.164500,2786
196.165000,2742
196.165500,0
196.166000,1538
196.166500,0
196.167000,2408
196.167500,816
196.168000,0
196.168500,1569
196.169000,2876
196.169500,2311
196.170000,431
196.170500,2527
196.171000,2506
196.171500,925
196.172000,1812
196.172500,0
196.173000,1636
196.173500,2308
196.174000,828
196.174500,2651
196.175000,1403
196.175500,2629
196.176000,2658
196.176500,2275
196.177000,682
196.177500,0
196.178000,0
196.178500,0
196.179000,2022
196.179500,2974
196.180000,1856
196.180500,1946
196.181000,3055
196.181500,1294
196.182000,2417
196.182500,2954
196.183000,1989
196.183500,1713
196.184000,2863
196.184500,2309
196.185000,1762
196.185500,2554
196.186000,2407
196.186500,2531
196.187000,1920
196.187500,1946
196.188000,0
196.188500,1918
196.189000,2077
196.189500,2679
196.190000,0
196.190500,2744
196.191000,2103
196.191500,2762
196.192000,2724
196.192500,1492
196.193000,1949
196.193500,2294
196.194000,2650
196.194500,1916
196.195000,283
196.195500,2613
196.196000,1214
196.196500,0
196.197000,2548
196.197500,0
196.198000,0
196.198500,0
196.199000,0
196.199500,2633
196.200000,2337
196.200500,3057
196.201000,2988
196.201500,1953
196.202000,2694
196.202500,2892
196.203000,2696
196.203500,906
196.204000,2458
196.204500,2812
196.205000,2324
196.205500,1611
196.206000,2128
196.206500,2019
196.207000,0
196.207500,2569
196.208000,0
196.208500,1029
196.209000,2753
196.209500,1952
196.210000,2629
196.210500,2085
196.211000,2736
196.211500,2045
196.212000,0
196.212500,1520
196.213000,2464
196.213500,2492
196.214000,0
196.214500,2544
196.215000,2585
196.215500,2687
196.216000,1678
196.216500,2673
196.217000,345
196.217500,0
196.218000,0
196.218500,0
196.219000,1244
196.219500,1741
196.220000,2111
196.220500,2073
196.221000,1908
196.221500,2156
196.222000,1538
196.222500,1518
196.223000,32
196.223500,2193
196.224000,1820
196.224500,17
196.225000,1578
196.225500,2751
196.226000,2307
196.226500,2668
196.227000,2752
196.227500,1620
196.228000,0
196.228500,2676
196.229000,2477
196.229500,1279
196.230000,1998
196.230500,2770
196.231000,2496
196.231500,2733
196.232000,2316
196.232500,1372
196.233000,703
196.233500,2067
196.234000,2693
196.234500,1558
196.235000,2537
196.235500,2623
196.236000,1763
196.236500,2552
196.237000,1262
196.237500,0
196.238000,0
196.238500,0
196.239000,1381
196.239500,3090
196.240000,1852
196.240500,1230
196.241000,2987
196.241500,2970
196.242000,2209
196.242500,2734
196.243000,2647
196.243500,2540
196.244000,2858
196.244500,2406
196.245000,2493
196.245500,2797
196.246000,1980
196.246500,2544
196.247000,2526
196.247500,2450
196.248000,0
196.248500,0
196.249000,2880
196.249500,2818
196.250000,1831
196.250500,2859
196.251000,2323
196.251500,1269
196.252000,2778
196.252500,1777
196.253000,2173
196.253500,2606
196.254000,2730
196.254500,2598
196.255000,2668
196.255500,2690
196.256000,1743
196.256500,1602
196.257000,806
196.257500,0
196.258000,0
196.258500,0
196.259000,2877
196.259500,2269
196.260000,1816
196.260500,2661
196.261000,272
196.261500,3031
196.262000,1746
196.262500,2151
196.263000,2016
196.263500,1614
196.264000,2284
196.264500,1293
196.265000,2550
196.265500,1767
196.266000,1430
196.266500,990
196.267000,2489
196.267500,1742
196.268000,0
196.268500,2294
196.269000,2974
196.269500,2022
196.270000,2896
196.270500,1852
196.271000,2799
196.271500,2512
196.272000,38
196.272500,1818
196.273000,1911
196.273500,1536
196.274000,1268
196.274500,2443
196.275000,0
196.275500,2602
196.276000,2010
196.276500,2000
196.277000,2150
196.277500,0
196.278000,0
196.278500,0
196.279000,1846
196.279500,0
196.280000,1821
196.280500,2554
196.281000,1838
196.281500,2496
196.282000,2594
196.282500,2083
196.283000,1586
196.283500,2885
196.284000,2276
196.284500,2643
196.285000,0
196.285500,1702
196.286000,2177
196.286500,2184
196.287000,2800
196.287500,939
196.288000,0
196.288500,71
196.289000,2108
196.289500,2614
196.290000,2470
196.290500,2826
196.291000,1256
196.291500,2348
196.292000,2810
196.292500,2768
196.293000,2557
196.293500,2661
196.294000,2742
196.294500,2288
196.295000,2259
196.295500,2664
196.296000,2185
196.296500,2582
196.297000,70
196.297500,0
196.298000,0
196.298500,0
196.299000,2815
196.299500,156
196.300000,3052
196.300500,1319
196.301000,1802
196.301500,2907
196.302000,2964
196.302500,2610
196.303000,2836
196.303500,2891
196.304000,2064
196.304500,2730
196.305000,2668
196.305500,1766
196.306000,2149
196.306500,2325
196.307000,2633
196.307500,2322
196.308000,0
196.308500,2871
196.309000,297
196.309500,2738
196.310000,2849
196.310500,2015
196.311000,2583
196.311500,0
196.312000,2733
196.312500,2052
196.313000,2675
196.313500,2332
196.314000,2519
196.314500,2193
196.315000,2691
196.315500,2665
196.316000,2667
196.316500,1234
196.317000,2705
196.317500,0
196.318000,0
196.318500,0
196.319000,1417
196.319500,0
196.320000,2052
196.320500,1895
196.321000,2871
196.321500,2727
196.322000,2828
196.322500,2693
196.323000,1730
196.323500,2646
196.324000,2927
196.324500,1960
196.325000,2377
196.325500,2378
196.326000,2222
196.326500,2069
196.327000,2738
196.327500,2620
196.328000,0
196.328500,1192
196.329000,2324
196.329500,2819
196.330000,2853
196.330500,394
196.331000,2037
196.331500,0
196.332000,2716
196.332500,0
196.333000,0
196.333500,891
196.334000,2668
196.334500,2272
196.335000,2712
196.335500,1942
196.336000,164
196.336500,825
196.337000,2626
196.337500,0
196.338000,0
196.338500,0
196.339000,2538
196.339500,1613
196.340000,3018
196.340500,1667
196.341000,1416
196.341500,2986
196.342000,2379
196.342500,1997
196.343000,2971
196.343500,2804
196.344000,2353
196.344500,1192
196.345000,1736
196.345500,379
196.346000,2576
196.346500,1558
196.347000,1684
196.347500,1894
196.348000,0
196.348500,2887
196.349000,2832
196.349500,2534
196.350000,2888
196.350500,2863
196.351000,1708
196.351500,2823
196.352000,1829
196.352500,1777
196.353000,2231
196.353500,2742
196.354000,2192
196.354500,2698
196.355000,2669
196.355500,2697
196.356000,2176
196.356500,1010
196.357000,1331
196.357500,0
196.358000,0
196.358500,0
196.359000,1722
196.359500,732
196.360000,3022
196.360500,2147
196.361000,760
196.361500,3007
196.362000,1446
196.362500,1411
196.363000,2834
196.363500,2870
196.364000,2438
196.364500,1277
196.365000,2830
196.365500,2768
196.366000,2707
196.366500,2704
196.367000,2426
196.367500,1031
196.368000,0
196.368500,2014
196.369000,2683
196.369500,1289
196.370000,2931
196.370500,2590
196.371000,1407
196.371500,2752
196.372000,2765
196.372500,1646
196.373000,2772
196.373500,2652
196.374000,1182
196.374500,1660
196.375000,2674
196.375500,2352
196.376000,2646
196.376500,2661
196.377000,2100
196.377500,0
196.378000,0
196.378500,0
196.379000,2960
196.379500,1738
196.380000,3041
196.380500,2169
196.381000,2519
196.381500,2962
196.382000,1303
196.382500,2118
196.383000,1893
196.383500,627
196.384000,2880
196.384500,2886
196.385000,2125
196.385500,1363
196.386000,2407
196.386500,2730
196.387000,2674
196.387500,1358
196.388000,0
196.388500,2411
196.389000,2450
196.389500,2925
196.390000,2899
196.390500,2774
196.391000,2049
196.391500,1449
196.392000,2314
196.392500,1526
196.393000,2780
196.393500,2728
196.394000,2657
196.394500,1699
196.395000,2628
196.395500,2084
196.396000,1837
196.396500,2682
196.397000,159
196.397500,0
196.398000,0
196.398500,0
196.399000,1802
196.399500,1534
196.400000,1152
196.400500,1417
196.401000,1322
196.401500,2721
196.402000,2948
196.402500,2208
196.403000,2934
196.403500,2947
196.404000,2266
196.404500,2843
196.405000,2495
196.405500,1861
196.406000,2814
196.406500,1983
196.407000,2698
196.407500,1585
196.408000,0
196.408500,2377
196.409000,1670
196.409500,2716
196.410000,2514
196.410500,2039
196.411000,2764
196.411500,2827
196.412000,2730
196.412500,2561
196.413000,2210
196.413500,1842
196.414000,1894
196.414500,2670
196.415000,1994
196.415500,2267
196.416000,2660
196.416500,1980
196.417000,2693
196.417500,0
196.418000,0
196.418500,0
196.419000,2588
196.419500,1191
196.420000,1687
196.420500,1809
196.421000,2078
196.421500,2764
196.422000,1962
196.422500,2422
196.423000,2995
196.423500,1844
196.424000,1640
196.424500,2839
196.425000,1891
196.425500,2735
196.426000,477
196.426500,883
196.427000,1291
196.427500,2564
196.428000,0
196.428500,932
196.429000,2820
196.429500,1846
196.430000,2852
196.430500,2254
196.431000,2770
196.431500,2247
196.432000,2563
196.432500,0
196.433000,2074
196.433500,1486
196.434000,1597
196.434500,2614
196.435000,1902
196.435500,2645
196.436000,2676
196.436500,2040
196.437000,1441
196.437500,0
196.438000,0
196.438500,0
196.439000,2484
196.439500,1300
196.440000,2449
196.440500,3001
196.441000,876
196.441500,1332
196.442000,2161
196.442500,2988
196.443000,2074
196.443500,2956
196.444000,367
196.444500,2886
196.445000,2901
196.445500,2186
196.446000,2854
196.446500,2493
196.447000,2066
196.447500,2400
196.448000,0
196.448500,1063
196.449000,2221
196.449500,2917
196.450000,2860
196.450500,2015
196.451000,2874
196.451500,2301
196.452000,2144
196.452500,1043
196.453000,1278
196.453500,1727
196.454000,2727
196.454500,2032
196.455000,1056
196.455500,1380
196.456000,2572
196.456500,1991
196.457000,2578
196.457500,0
196.458000,0
196.458500,0
196.459000,2018
196.459500,1351
196.460000,2960
196.460500,2230
196.461000,2966
196.461500,351
196.462000,2181
196.462500,3042
196.463000,1903
196.463500,2838
196.464000,792
196.464500,1876
196.465000,2850
196.465500,1126
196.466000,2682
196.466500,2172
196.467000,2308
196.467500,2735
196.468000,0
196.468500,1337
196.469000,2469
196.469500,2390
196.470000,2224
196.470500,1603
196.471000,2869
196.471500,2674
196.472000,2595
196.472500,2540
196.473000,1576
196.473500,1643
196.474000,1991
196.474500,1760
196.475000,2199
196.475500,0
196.476000,2662
196.476500,2426
196.477000,2107
196.477500,0
196.478000,0
196.478500,838
196.479000,2162
196.479500,1543
196.480000,2347
196.480500,1820
196.481000,2983
196.481500,3051
196.482000,1641
196.482500,3071
196.483000,3012
196.483500,2812
196.484000,1587
196.484500,2598
196.485000,2336
196.485500,0
196.486000,1965
196.486500,1655
196.487000,2678
196.487500,2384
196.488000,0
196.488500,2446
196.489000,2116
196.489500,2481
196.490000,1964
196.490500,2864
196.491000,2743
196.491500,2147
196.492000,2588
196.492500,1898
196.493000,1993
196.493500,1954
196.494000,1762
196.494500,1080
196.495000,2700
196.495500,2376
196.496000,2717
196.496500,0
196.497000,2451
196.497500,0
196.498000,0
196.498500,0
196.499000,2969
196.499500,1141
196.500000,528
196.500500,3116
196.501000,2711
196.501500,1885
196.502000,2674
196.502500,2898
196.503000,2432
196.503500,2667
196.504000,2998
196.504500,1561
196.505000,2843
196.505500,2896
196.506000,1746
196.506500,833
196.507000,0
196.507500,1746
196.508000,0
196.508500,0
196.509000,2847
196.509500,2914
196.510000,2020
196.510500,2826
196.511000,2294
196.511500,2650
196.512000,758
196.512500,1891
196.513000,2058
196.513500,2438
196.514000,191
196.514500,2545
196.515000,2278
196.515500,2706
196.516000,2683
196.516500,1922
196.517000,1470
196.517500,0
196.518000,0
196.518500,660
196.519000,2940
196.519500,2936
196.520000,2345
196.520500,2179
196.521000,2891
196.521500,3038
196.522000,2475
196.522500,2955
196.523000,2939
196.523500,2659
196.524000,2842
196.524500,2848
196.525000,1658
196.525500,2698
196.526000,2814
196.526500,1329
196.527000,1746
196.527500,1174
196.528000,0
196.528500,609
196.529000,2576
196.529500,2239
196.530000,2188
196.530500,422
196.531000,2823
196.531500,2738
196.532000,2749
196.532500,2779
196.533000,1421
196.533500,1228
196.534000,2746
196.534500,2317
196.535000,2064
196.535500,2719
196.536000,2352
196.536500,2640
196.537000,811
196.537500,0
196.538000,0
196.538500,931
196.539000,2247
196.539500,2955
196.540000,1842
196.540500,1980
196.541000,1956
196.541500,2726
196.542000,2974
196.542500,2802
196.543000,2845
196.543500,2670
196.544000,2852
196.544500,2259
196.545000,2648
196.545500,2760
196.546000,484
196.546500,2729
196.547000,2782
196.547500,2566
196.548000,0
196.548500,0
196.549000,2133
196.549500,1511
196.550000,2106
196.550500,2888
196.551000,2392
196.551500,2039
196.552000,2672
196.552500,1602
196.553000,2196
196.553500,1348
196.554000,1498
196.554500,2606
196.555000,2471
196.555500,0
196.556000,2610
196.556500,2283
196.557000,1704
196.557500,0
196.558000,0
196.558500,0
196.559000,2809
196.559500,1316
196.560000,1450
196.560500,2448
196.561000,989
196.561500,2491
196.562000,2946
196.562500,1537
196.563000,0
196.563500,0
196.564000,1854
196.564500,2927
196.565000,2377
196.565500,2939
196.566000,1988
196.566500,2126
196.567000,0
196.567500,1837
196.568000,0
196.568500,0
196.569000,1996
196.569500,2514
196.570000,2867
196.570500,2757
196.571000,1260
196.571500,1847
196.572000,1327
196.572500,1740
196.573000,2421
196.573500,2710
196.574000,2696
196.574500,1410
196.575000,2647
196.575500,2091
196.576000,2066
196.576500,2588
196.577000,2675
196.577500,0
196.578000,0
196.578500,0
196.579000,980
196.579500,1775
196.580000,1868
196.580500,2964
196.581000,2065
196.581500,2262
196.582000,0
196.582500,2516
196.583000,2811
196.583500,2906
196.584000,2229
196.584500,0
196.585000,1866
196.585500,1743
196.586000,2380
196.586500,1892
196.587000,1823
196.587500,627
196.588000,0
196.588500,0
196.589000,2281
196.589500,2834
196.590000,0
196.590500,1869
196.591000,2139
196.591500,1614
196.592000,2796
196.592500,1552
196.593000,1779
196.593500,2581
196.594000,2317
196.594500,2718
196.595000,2428
196.595500,2708
196.596000,69
196.596500,2096
196.597000,2676
196.597500,0
196.598000,0
196.598500,0
196.599000,660
196.599500,2870
196.600000,2731
196.600500,3010
196.601000,2934
196.601500,2835
196.602000,748
196.602500,2460
196.603000,2397
196.603500,2546
196.604000,2098
196.604500,1779
196.605000,0
196.605500,2751
196.606000,760
196.606500,2685
196.607000,1985
196.607500,1984
196.608000,751
196.608500,0
196.609000,2215
196.609500,2274
196.610000,2815
196.610500,1290
196.611000,810
196.611500,2641
196.612000,2691
196.612500,1716
196.613000,2285
196.613500,2395
196.614000,2674
196.614500,2574
196.615000,1271
196.615500,2299
196.616000,2684
196.616500,1557
196.617000,2634
196.617500,0
196.618000,0
196.618500,0
196.619000,534
196.619500,1765
196.620000,1668
196.620500,3015
196.621000,2523
196.621500,0
196.622000,2169
196.622500,2284
196.623000,2899
196.623500,2924
196.624000,2066
196.624500,1674
196.625000,2821
196.625500,2333
196.626000,2609
196.626500,2694
196.627000,2326
196.627500,2619
196.628000,0
196.628500,0
196.629000,0
196.629500,2695
196.630000,2813
196.630500,1092
196.631000,2315
196.631500,2660
196.632000,2122
196.632500,1370
196.633000,2480
196.633500,2686
196.634000,2222
196.634500,1405
196.635000,2696
196.635500,1784
196.636000,2657
196.636500,2338
196.637000,2705
196.637500,0
196.638000,0
196.638500,0
196.639000,0
196.639500,814
196.640000,2214
196.640500,837
196.641000,2993
196.641500,1323
196.642000,2094
196.642500,1728
196.643000,2944
196.643500,2942
196.644000,2844
196.644500,2849
196.645000,2802
196.645500,1066
196.646000,1974
196.646500,2529
196.647000,1593
196.647500,2662
196.648000,0
196.648500,0
196.649000,2479
196.649500,1428
196.650000,2847
196.650500,2437
196.651000,2082
196.651500,2099
196.652000,1912
196.652500,1958
196.653000,91
196.653500,1794
196.654000,351
196.654500,1850
196.655000,2663
196.655500,1836
196.656000,2275
196.656500,2695
196.657000,2529
196.657500,0
196.658000,0
196.658500,0
196.659000,0
196.659500,2882
196.660000,2982
196.660500,2935
196.661000,2424
196.661500,2559
196.662000,752
196.662500,580
196.663000,0
196.663500,1474
196.664000,1814
196.664500,1185
196.665000,2878
196.665500,2035
196.666000,2529
196.666500,2899
196.667000,2424
196.667500,1868
196.668000,369
196.668500,0
196.669000,2406
196.669500,2386
196.670000,1475
196.670500,196
196.671000,2005
196.671500,2423
196.672000,847
196.672500,2747
196.673000,2727
196.673500,2036
196.674000,2585
196.674500,1866
196.675000,1513
196.675500,2717
196.676000,2609
196.676500,2618
196.677000,1576
196.677500,0
196.678000,0
196.678500,0
196.679000,0
196.679500,3051
196.680000,1416
196.680500,2096
196.681000,2244
196.681500,2835
196.682000,0
196.682500,2105
196.683000,2917
196.683500,2426
196.684000,2794
196.684500,2673
196.685000,2895
196.685500,2808
196.686000,2164
196.686500,2700
196.687000,2712
196.687500,2371
196.688000,0
196.688500,0
196.689000,2966
196.689500,0
196.690000,2011
196.690500,2522
196.691000,2321
196.691500,1681
196.692000,2833
196.692500,2328
196.693000,2755
196.693500,1689
196.694000,0
196.694500,2636
196.695000,1593
196.695500,2710
196.696000,2630
196.696500,356
196.697000,2605
196.697500,0
196.698000,0
196.698500,0
196.699000,0
196.699500,1445
196.700000,506
196.700500,2566
196.701000,1382
196.701500,2067
196.702000,0
196.702500,2429
196.703000,2011
196.703500,2946
196.704000,2667
196.704500,2933
196.705000,2619
196.705500,356
196.706000,2785
196.706500,336
196.707000,2311
196.707500,2541
196.708000,306
196.708500,0
196.709000,2891
196.709500,2880
196.710000,2812
196.710500,180
196.711000,2457
196.711500,2211
196.712000,1697
196.712500,2614
196.713000,2347
196.713500,2786
196.714000,1324
196.714500,2108
196.715000,2032
196.715500,2095
196.716000,2404
196.716500,2703
196.717000,1100
196.717500,0
196.718000,0
196.718500,0
196.719000,0
196.719500,3028
196.720000,534
196.720500,2960
196.721000,1705
196.721500,1722
196.722000,2973
196.722500,2961
196.723000,2878
196.723500,2156
196.724000,1982
196.724500,0
196.725000,2850
196.725500,2700
196.726000,270
196.726500,2434
196.727000,2164
196.727500,1606
196.728000,0
196.728500,0
196.729000,2679
196.729500,1634
196.730000,2387
196.730500,2134
196.731000,2712
196.731500,1212
196.732000,1938
196.732500,2111
196.733000,2664
196.733500,2360
196.734000,2670
196.734500,2703
196.735000,2767
196.735500,2066
196.736000,527
196.736500,2636
196.737000,2119
196.737500,0
196.738000,0
196.738500,0
196.739000,0
196.739500,1784
196.740000,2903
196.740500,2224
196.741000,2835
196.741500,1378
196.742000,2534
196.742500,2644
196.743000,1294
196.743500,2166
196.744000,1113
196.744500,2978
196.745000,1902
196.745500,2825
196.746000,2891
196.746500,2698
196.747000,1272
196.747500,1503
196.748000,195
196.748500,0
196.749000,2996
196.749500,2274
196.750000,1693
196.750500,2654
196.751000,2946
196.751500,2822
196.752000,0
196.752500,2699
196.753000,1601
196.753500,0
196.754000,2378
196.754500,1427
196.755000,2704
196.755500,1743
196.756000,1518
196.756500,893
196.757000,1363
196.757500,0
196.758000,0
196.758500,0
196.759000,0
196.759500,3061
196.760000,2011
196.760500,1041
196.761000,2947
196.761500,1679
196.762000,2907
196.762500,758
196.763000,3035
196.763500,2986
196.764000,2483
196.764500,2951
196.765000,1143
196.765500,2583
196.766000,2842
196.766500,1808
196.767000,2744
196.767500,2207
196.768000,534
196.768500,0
196.769000,2319
196.769500,2884
196.770000,2196
196.770500,1482
196.771000,2678
196.771500,2543
196.772000,2670
196.772500,2741
196.773000,2713
196.773500,2797
196.774000,1905
196.774500,1939
196.775000,2514
196.775500,889
196.776000,2582
196.776500,1627
196.777000,931
196.777500,0
196.778000,0
196.778500,0
196.779000,0
196.779500,2495
196.780000,0
196.780500,2749
196.781000,520
196.781500,2098
196.782000,11
196.782500,3039
196.783000,2972
196.783500,2928
196.784000,2759
196.784500,2892
196.785000,2808
196.785500,2281
196.786000,2753
196.786500,1523
196.787000,2700
196.787500,2707
196.788000,489
196.788500,0
196.789000,2239
196.789500,1456
196.790000,2957
196.790500,1898
196.791000,2184
196.791500,1711
196.792000,2794
196.792500,254
196.793000,1651
196.793500,2411
196.794000,2756
196.794500,2724
196.795000,2520
196.795500,1769
196.796000,2392
196.796500,2612
196.797000,0
196.797500,931
196.798000,0
196.798500,0
196.799000,0
196.799500,2524
196.800000,2920
196.800500,892
196.801000,3002
196.801500,1330
196.802000,3010
196.802500,0
196.803000,2080
196.803500,2762
196.804000,2774
196.804500,2816
196.805000,2486
196.805500,1595
196.806000,2822
196.806500,1749
196.807000,2131
196.807500,2729
196.808000,0
196.808500,0
196.809000,2658
196.809500,3048
196.810000,2198
196.810500,0
196.811000,2941
196.811500,2476
196.812000,2092
196.812500,2373
196.813000,2083
196.813500,1345
196.814000,2430
196.814500,2317
196.815000,2255
196.815500,2764
196.816000,2495
196.816500,2651
196.817000,1467
196.817500,1599
196.818000,0
196.818500,0
196.819000,0
196.819500,1773
196.820000,3059
196.820500,1591
196.821000,3020
196.821500,3063
196.822000,1814
196.822500,2320
196.823000,2982
196.823500,2828
196.824000,1370
196.824500,2378
196.825000,2097
196.825500,2887
196.826000,1842
196.826500,2130
196.827000,1870
196.827500,1603
196.828000,988
196.828500,0
196.829000,2853
196.829500,2901
196.830000,1954
196.830500,2878
196.831000,2805
196.831500,1744
196.832000,1984
196.832500,2747
196.833000,2762
196.833500,1952
196.834000,2204
196.834500,1172
196.835000,1486
196.835500,2558
196.836000,2664
196.836500,2288
196.837000,1401
196.837500,2098
196.838000,0
196.838500,0
196.839000,0
196.839500,2933
196.840000,678
196.840500,2916
196.841000,1842
196.841500,1408
196.842000,0
196.842500,2678
196.843000,2518
196.843500,2957
196.844000,2920
196.844500,2802
196.845000,2773
196.845500,2903
196.846000,1790
196.846500,2771
196.847000,588
196.847500,2567
196.848000,789
196.848500,0
196.849000,2928
196.849500,1403
196.850000,2873
196.850500,0
196.851000,2920
196.851500,1324
196.852000,2556
196.852500,1312
196.853000,1542
196.853500,2676
196.854000,2787
196.854500,2310
196.855000,2018
196.855500,0
196.856000,2241
196.856500,612
196.857000,2122
196.857500,1325
196.858000,0
196.858500,545
196.859000,0
196.859500,2317
196.860000,318
196.860500,1447
196.861000,1115
196.861500,3029
196.862000,2153
196.862500,2999
196.863000,2831
196.863500,3015
196.864000,1780
196.864500,1715
196.865000,1234
196.865500,1661
196.866000,2785
196.866500,2864
196.867000,2666
196.867500,2807
196.868000,2341
196.868500,0
196.869000,2672
196.869500,2968
196.870000,1830
196.870500,2933
196.871000,2872
196.871500,2764
196.872000,787
196.872500,2796
196.873000,1468
196.873500,1701
196.874000,2719
196.874500,2147
196.875000,2384
196.875500,2770
196.876000,2309
196.876500,2715
196.877000,0
196.877500,1221
196.878000,0
196.878500,0
196.879000,0
196.879500,365
196.880000,2420
196.880500,2936
196.881000,2297
196.881500,3018
196.882000,1285
196.882500,1911
196.883000,1297
196.883500,2053
196.884000,2670
196.884500,2748
196.885000,2056
196.885500,2966
196.886000,1918
196.886500,1870
196.887000,0
196.887500,1867
196.888000,1009
196.888500,0
196.889000,2114
196.889500,890
196.890000,2863
196.890500,0
196.891000,1786
196.891500,1787
196.892000,2853
196.892500,2647
196.893000,2348
196.893500,1553
196.894000,2804
196.894500,1689
196.895000,1764
196.895500,2694
196.896000,2748
196.896500,2626
196.897000,1534
196.897500,2466
196.898000,0
196.898500,0
196.899000,0
196.899500,3110
196.900000,3023
196.900500,0
196.901000,3043
196.901500,0
196.902000,1800
196.902500,1287
196.903000,2167
196.903500,2637
196.904000,1360
196.904500,2264
196.905000,2965
196.905500,2975
196.906000,2202
196.906500,2806
196.907000,1767
196.907500,2613
196.908000,2324
196.908500,0
196.909000,2178
196.909500,1307
196.910000,2836
196.910500,1374
196.911000,2949
196.911500,2747
196.912000,2798
196.912500,2113
196.913000,2735
196.913500,2799
196.914000,2754
196.914500,1268
196.915000,1146
196.915500,670
196.916000,2582
196.916500,2621
196.917000,2755
196.917500,2505
196.918000,0
196.918500,0
196.919000,0
196.919500,2116
196.920000,2467
196.920500,1382
196.921000,2225
196.921500,2981
196.922000,2161
196.922500,0
196.923000,2815
196.923500,2372
196.924000,2901
196.924500,2920
196.925000,2078
196.925500,2805
196.926000,2934
196.926500,1909
196.927000,2860
196.927500,2860
196.928000,1742
196.928500,0
196.929000,2555
196.929500,2139
196.930000,672
196.930500,2748
196.931000,2466
196.931500,2241
196.932000,2892
196.932500,2212
196.933000,1890
196.933500,0
196.934000,2606
196.934500,2403
196.935000,1940
196.935500,1924
196.936000,2668
196.936500,1389
196.937000,2706
196.937500,630
196.938000,807
196.938500,0
196.939000,0
196.939500,1900
196.940000,2982
196.940500,2442
196.941000,2540
196.941500,1434
196.942000,3015
196.942500,1064
196.943000,2003
196.943500,2768
196.944000,2001
196.944500,1254
196.945000,2869
196.945500,2911
196.946000,2716
196.946500,612
196.947000,2744
196.947500,2640
196.948000,1384
196.948500,0
196.949000,855
196.949500,2885
196.950000,2760
196.950500,2821
196.951000,2757
196.951500,2773
196.952000,2856
196.952500,2381
196.953000,2762
196.953500,1587
196.954000,1918
196.954500,2423
196.955000,0
196.955500,2068
196.956000,2477
196.956500,1912
196.957000,2618
196.957500,1383
196.958000,0
196.958500,0
196.959000,0
196.959500,2906
196.960000,3041
196.960500,2160
196.961000,2738
196.961500,1136
196.962000,3001
196.962500,2201
196.963000,1348
196.963500,2992
196.964000,0
196.964500,2199
196.965000,2920
196.965500,2128
196.966000,2740
196.966500,2950
196.967000,2200
196.967500,2378
196.968000,1269
196.968500,0
196.969000,2518
196.969500,2999
196.970000,2672
196.970500,2706
196.971000,2806
196.971500,2873
196.972000,2707
196.972500,2100
196.973000,2544
196.973500,2752
196.974000,2802
196.974500,1455
196.975000,2818
196.975500,2327
196.976000,2042
196.976500,2624
196.977000,2322
196.977500,1553
196.978000,0
196.978500,0
196.979000,0
196.979500,3005
196.980000,0
196.980500,1745
196.981000,3027
196.981500,2010
196.982000,1490
196.982500,1778
196.983000,2995
196.983500,3087
196.984000,1777
196.984500,2081
196.985000,3007
196.985500,2122
196.986000,2860
196.986500,2785
196.987000,719
196.987500,1670
196.988000,2732
196.988500,0
196.989000,1866
196.989500,3034
196.990000,3036
196.990500,2820
196.991000,1604
196.991500,2512
196.992000,2613
196.992500,1579
196.993000,2658
196.993500,2602
196.994000,1690
196.994500,2380
196.995000,2771
196.995500,0
196.996000,1682
196.996500,2040
196.997000,1288
196.997500,818
196.998000,0
196.998500,0
196.999000,0
196.999500,0
197.000000,2102
197.000500,2118
197.001000,2729
197.001500,1386
197.002000,0
197.002500,2484
197.003000,2992
197.003500,956
197.004000,2910
197.004500,2985
197.005000,2954
197.005500,2671
197.006000,1558
197.006500,2846
197.007000,2812
197.007500,2074
197.008000,688
197.008500,0
197.009000,1827
197.009500,2921
197.010000,2534
197.010500,1657
197.011000,2932
197.011500,2810
197.012000,2682
197.012500,1624
197.013000,1374
197.013500,1581
197.014000,1778
197.014500,2461
197.015000,2189
197.015500,2463
197.016000,2768
197.016500,2773
197.017000,2262
197.017500,1783
197.018000,0
197.018500,0
197.019000,0
197.019500,2016
197.020000,2529
197.020500,3019
197.021000,2044
197.021500,2971
197.022000,1015
197.022500,1304
197.023000,2613
197.023500,2965
197.024000,1880
197.024500,0
197.025000,1675
197.025500,994
197.026000,2942
197.026500,1885
197.027000,0
197.027500,2525
197.028000,2068
197.028500,0
197.029000,1810
197.029500,2962
197.030000,2143
197.030500,2873
197.031000,2043
197.031500,1410
197.032000,2798
197.032500,0
197.033000,2193
197.033500,0
197.034000,1714
197.034500,2728
197.035000,1860
197.035500,2617
197.036000,1223
197.036500,2728
197.037000,2530
197.037500,2640
197.038000,0
197.038500,0
197.039000,0
197.039500,3102
197.040000,0
197.040500,2512
197.041000,3019
197.041500,992
197.042000,1691
197.042500,2013
197.043000,3046
197.043500,1003
197.044000,2020
197.044500,2697
197.045000,2818
197.045500,1155
197.046000,2950
197.046500,957
197.047000,1880
197.047500,0
197.048000,2213
197.048500,0
197.049000,3018
197.049500,2648
197.050000,0
197.050500,2734
197.051000,400
197.051500,1191
197.052000,2456
197.052500,2419
197.053000,1704
197.053500,2250
197.054000,2517
197.054500,2807
197.055000,2792
197.055500,2512
197.056000,0
197.056500,1584
197.057000,1658
197.057500,541
197.058000,0
197.058500,0
197.059000,0
197.059500,2799
197.060000,1910
197.060500,3026
197.061000,106
197.061500,1304
197.062000,2522
197.062500,2970
197.063000,1871
197.063500,3078
197.064000,2488
197.064500,1553
197.065000,1268
197.065500,687
197.066000,2900
197.066500,2982
197.067000,2362
197.067500,2938
197.068000,2313
197.068500,0
197.069000,2897
197.069500,2991
197.070000,2937
197.070500,1918
197.071000,1732
197.071500,2578
197.072000,1770
197.072500,2865
197.073000,2271
197.073500,1581
197.074000,1788
197.074500,1838
197.075000,2709
197.075500,2800
197.076000,2826
197.076500,2629
197.077000,2423
197.077500,2036
197.078000,0
197.078500,0
197.079000,0
197.079500,2042
197.080000,2835
197.080500,1877
197.081000,1390
197.081500,2336
197.082000,1335
197.082500,375
197.083000,2950
197.083500,2994
197.084000,1348
197.084500,408
197.085000,2046
197.085500,1330
197.086000,2361
197.086500,2890
197.087000,2404
197.087500,2771
197.088000,1583
197.088500,0
197.089000,570
197.089500,2345
197.090000,735
197.090500,2955
197.091000,3006
197.091500,2958
197.092000,2517
197.092500,2795
197.093000,0
197.093500,1586
197.094000,2830
197.094500,2312
197.095000,1455
197.095500,2804
197.096000,2705
197.096500,150
197.097000,2713
197.097500,1723
197.098000,0
197.098500,0
197.099000,0
197.099500,1124
197.100000,2526
197.100500,2037
197.101000,3060
197.101500,224
197.102000,1285
197.102500,2886
197.103000,1904
197.103500,2806
197.104000,3031
197.104500,2989
197.105000,2709
197.105500,2390
197.106000,1768
197.106500,2973
197.107000,1840
197.107500,2445
197.108000,2421
197.108500,0
197.109000,1966
197.109500,2808
197.110000,2694
197.110500,1841
197.111000,1753
197.111500,2535
197.112000,0
197.112500,2296
197.113000,1824
197.113500,818
197.114000,2785
197.114500,2036
197.115000,1936
197.115500,0
197.116000,2574
197.116500,2637
197.117000,0
197.117500,1925
197.118000,0
197.118500,0
197.119000,0
197.119500,130
197.120000,1979
197.120500,2461
197.121000,2113
197.121500,1585
197.122000,2994
197.122500,1676
197.123000,2294
197.123500,1782
197.124000,1892
197.124500,2591
197.125000,2410
197.125500,2631
197.126000,1981
197.126500,2267
197.127000,1708
197.127500,2611
197.128000,2382
197.128500,0
197.129000,2066
197.129500,297
197.130000,2846
197.130500,2966
197.131000,0
197.131500,1483
197.132000,2190
197.132500,1012
197.133000,2291
197.133500,2545
197.134000,1396
197.134500,1473
197.135000,1140
197.135500,2507
197.136000,1786
197.136500,2617
197.137000,2217
197.137500,2724
197.138000,0
197.138500,0
197.139000,0
197.139500,3152
197.140000,1982
197.140500,3018
197.141000,0
197.141500,2505
197.142000,0
197.142500,2859
197.143000,1772
197.143500,3037
197.144000,2064
197.144500,0
197.145000,0
197.145500,2032
197.146000,135
197.146500,2050
197.147000,2888
197.147500,2622
197.148000,2854
197.148500,0
197.149000,340
197.149500,2145
197.150000,3020
197.150500,2626
197.151000,2003
197.151500,2264
197.152000,1720
197.152500,2558
197.153000,2142
197.153500,0
197.154000,1326
197.154500,2413
197.155000,2421
197.155500,2743
197.156000,2743
197.156500,1498
197.157000,2772
197.157500,1172
197.158000,0
197.158500,0
197.159000,0
197.159500,2398
197.160000,3012
197.160500,2898
197.161000,2092
197.161500,2908
197.162000,1344
197.162500,2053
197.163000,1318
197.163500,1796
197.164000,2282
197.164500,2093
197.165000,224
197.165500,1421
197.166000,2741
197.166500,1781
197.167000,2876
197.167500,2328
197.168000,1635
197.168500,0
197.169000,1573
197.169500,2982
197.170000,3050
197.170500,3016
197.171000,0
197.171500,1215
197.172000,2869
197.172500,2317
197.173000,2170
197.173500,2785
197.174000,1475
197.174500,995
197.175000,2372
197.175500,2650
197.176000,2162
197.176500,2778
197.177000,2708
197.177500,1493
197.178000,0
197.178500,0
197.179000,0
197.179500,3087
197.180000,0
197.180500,2922
197.181000,2003
197.181500,2410
197.182000,1417
197.182500,455
197.183000,3042
197.183500,696
197.184000,1890
197.184500,1240
197.185000,2898
197.185500,2903
197.186000,2992
197.186500,2971
197.187000,2970
197.187500,2533
197.188000,2912
197.188500,0
197.189000,2000
197.189500,2582
197.190000,2336
197.190500,2513
197.191000,2717
197.191500,0
197.192000,2817
197.192500,2330
197.193000,2764
197.193500,1943
197.194000,2060
197.194500,1320
197.195000,2776
197.195500,2726
197.196000,2094
197.196500,2710
197.197000,2740
197.197500,2233
197.198000,0
197.198500,0
197.199000,0
197.199500,1957
197.200000,2506
197.200500,2902
197.201000,2952
197.201500,1325
197.202000,2639
197.202500,3055
197.203000,3066
197.203500,3059
197.204000,1561
197.204500,2163
197.205000,1104
197.205500,1508
197.206000,2259
197.206500,0
197.207000,2801
197.207500,2681
197.208000,2404
197.208500,0
197.209000,0
197.209500,2672
197.210000,2772
197.210500,1963
197.211000,2831
197.211500,2938
197.212000,2452
197.212500,1675
197.213000,2289
197.213500,1893
197.214000,2735
197.214500,603
197.215000,2750
197.215500,2754
197.216000,2583
197.216500,2799
197.217000,2026
197.217500,2759
197.218000,0
197.218500,0
197.219000,0
197.219500,2837
197.220000,3067
197.220500,1150
197.221000,1867
197.221500,2940
197.222000,2343
197.222500,3007
197.223000,2284
197.223500,2951
197.224000,1943
197.224500,2340
197.225000,2830
197.225500,2378
197.226000,2892
197.226500,2290
197.227000,2043
197.227500,2723
197.228000,1550
197.228500,0
197.229000,2167
197.229500,3006
197.230000,2962
197.230500,2159
197.231000,2444
197.231500,1947
197.232000,2771
197.232500,2463
197.233000,1249
197.233500,847
197.234000,0
197.234500,2368
197.235000,2760
197.235500,1546
197.236000,1773
197.236500,0
197.237000,2384
197.237500,1592
197.238000,0
197.238500,0
197.239000,0
197.239500,1706
197.240000,2820
197.240500,2902
197.241000,3002
197.241500,2050
197.242000,2911
197.242500,1842
197.243000,2892
197.243500,1543
197.244000,2781
197.244500,2875
197.245000,1480
197.245500,1827
197.246000,1723
197.246500,192
197.247000,1650
197.247500,2722
197.248000,2731
197.248500,0
197.249000,2540
197.249500,3006
197.250000,2930
197.250500,278
197.251000,2768
197.251500,465
197.252000,2911
197.252500,2730
197.253000,2226
197.253500,2818
197.254000,2786
197.254500,2749
197.255000,2601
197.255500,1829
197.256000,2658
197.256500,2714
197.257000,2504
197.257500,2492
197.258000,0
197.258500,0
197.259000,0
197.259500,3004
197.260000,3057
197.260500,2096
197.261000,1866
197.261500,1488
197.262000,1862
197.262500,2398
197.263000,0
197.263500,2006
197.264000,2456
197.264500,1972
197.265000,1653
197.265500,820
197.266000,2911
197.266500,1948
197.267000,2571
197.267500,2858
197.268000,1944
197.268500,0
197.269000,0
197.269500,2972
197.270000,2983
197.270500,2058
197.271000,1724
197.271500,1352
197.272000,0
197.272500,2543
197.273000,2911
197.273500,2444
197.274000,2044
197.274500,0
197.275000,2069
197.275500,0
197.276000,2802
197.276500,1527
197.277000,2643
197.277500,1685
197.278000,0
197.278500,0
197.279000,0
197.279500,0
197.280000,2409
197.280500,2059
197.281000,2601
197.281500,2986
197.282000,2118
197.282500,1897
197.283000,1860
197.283500,3030
197.284000,2252
197.284500,2117
197.285000,3006
197.285500,0
197.286000,2135
197.286500,2907
197.287000,2361
197.287500,1977
197.288000,2848
197.288500,0
197.289000,200
197.289500,3062
197.290000,2758
197.290500,1639
197.291000,2402
197.291500,2952
197.292000,2428
197.292500,1413
197.293000,2679
197.293500,2263
197.294000,2785
197.294500,2733
197.295000,1368
197.295500,2733
197.296000,2781
197.296500,2696
197.297000,0
197.297500,2644
197.298000,0
197.298500,0
197.299000,0
197.299500,2085
197.300000,2853
197.300500,2707
197.301000,2320
197.301500,1742
197.302000,1959
197.302500,1238
197.303000,2721
197.303500,1718
197.304000,2740
197.304500,0
197.305000,1601
197.305500,1571
197.306000,2954
197.306500,2613
197.307000,2137
197.307500,2575
197.308000,2830
197.308500,0
197.309000,0
197.309500,0
197.310000,1943
197.310500,2866
197.311000,2943
197.311500,1837
197.312000,2922
197.312500,2793
197.313000,2572
197.313500,1425
197.314000,2649
197.314500,2677
197.315000,2274
197.315500,2068
197.316000,546
197.316500,2749
197.317000,2370
197.317500,2745
197.318000,0
197.318500,0
197.319000,0
197.319500,1535
197.320000,2754
197.320500,2050
197.321000,3057
197.321500,2988
197.322000,1642
197.322500,1778
197.323000,1311
197.323500,2135
197.324000,1268
197.324500,1143
197.325000,1755
197.325500,380
197.326000,0
197.326500,2876
197.327000,2790
197.327500,2122
197.328000,2649
197.328500,0
197.329000,0
197.329500,2128
197.330000,2957
197.330500,2765
197.331000,0
197.331500,2756
197.332000,1797
197.332500,2625
197.333000,2787
197.333500,0
197.334000,1940
197.334500,550
197.335000,1940
197.335500,2618
197.336000,2404
197.336500,2688
197.337000,1794
197.337500,2614
197.338000,0
197.338500,0
197.339000,0
197.339500,2898
197.340000,2891
197.340500,1747
197.341000,2882
197.341500,1575
197.342000,2173
197.342500,2975
197.343000,2236
197.343500,1032
197.344000,2002
197.344500,0
197.345000,1567
197.345500,2595
197.346000,2885
197.346500,1882
197.347000,2352
197.347500,2562
197.348000,2324
197.348500,0
197.349000,0
197.349500,3058
197.350000,2778
197.350500,2820
197.351000,2890
197.351500,1548
197.352000,1318
197.352500,656
197.353000,1700
197.353500,2523
197.354000,2184
197.354500,2650
197.355000,1177
197.355500,2630
197.356000,2459
197.356500,2708
197.357000,2660
197.357500,1501
197.358000,0
197.358500,0
197.359000,257
197.359500,0
197.360000,1808
197.360500,2070
197.361000,2134
197.361500,1742
197.362000,2470
197.362500,1258
197.363000,1582
197.363500,665
197.364000,2754
197.364500,2734
197.365000,2864
197.365500,948
197.366000,0
197.366500,1574
197.367000,2923
197.367500,2984
197.368000,2019
197.368500,0
197.369000,0
197.369500,3023
197.370000,2422
197.370500,2952
197.371000,3039
197.371500,2706
197.372000,2794
197.372500,2781
197.373000,2190
197.373500,2404
197.374000,2779
197.374500,2839
197.375000,0
197.375500,1535
197.376000,0
197.376500,2470
197.377000,2828
197.377500,2814
197.378000,0
197.378500,0
197.379000,0
197.379500,1839
197.380000,3173
197.380500,1817
197.381000,3108
197.381500,2959
197.382000,1515
197.382500,3014
197.383000,1650
197.383500,0
197.384000,2663
197.384500,2894
197.385000,0
197.385500,1048
197.386000,2678
197.386500,1986
197.387000,2455
197.387500,2892
197.388000,1954
197.388500,0
197.389000,0
197.389500,2842
197.390000,1960
197.390500,2180
197.391000,620
197.391500,2828
197.392000,1525
197.392500,1894
197.393000,2813
197.393500,1499
197.394000,0
197.394500,2720
197.395000,2429
197.395500,2040
197.396000,2136
197.396500,2613
197.397000,1443
197.397500,1278
197.398000,0
197.398500,0
197.399000,0
197.399500,2941
197.400000,2002
197.400500,2862
197.401000,3048
197.401500,1058
197.402000,1729
197.402500,2802
197.403000,1890
197.403500,630
197.404000,2081
197.404500,2086
197.405000,3014
197.405500,2153
197.406000,1499
197.406500,2018
197.407000,2721
197.407500,2891
197.408000,2002
197.408500,0
197.409000,0
197.409500,3008
197.410000,2998
197.410500,2030
197.411000,2346
197.411500,408
197.412000,1742
197.412500,2794
197.413000,64
197.413500,2224
197.414000,2641
197.414500,2137
197.415000,0
197.415500,0
197.416000,2641
197.416500,868
197.417000,1436
197.417500,2763
197.418000,0
197.418500,0
197.419000,0
197.419500,3012
197.420000,339
197.420500,1457
197.421000,2301
197.421500,2980
197.422000,1220
197.422500,1698
197.423000,1941
197.423500,1733
197.424000,2309
197.424500,1796
197.425000,2918
197.425500,1797
197.426000,917
197.426500,0
197.427000,2495
197.427500,2896
197.428000,2067
197.428500,0
197.429000,0
197.429500,2748
197.430000,2568
197.430500,1819
197.431000,2922
197.431500,2714
197.432000,399
197.432500,2819
197.433000,2823
197.433500,2591
197.434000,2136
197.434500,1602
197.435000,2220
197.435500,2628
197.436000,2804
197.436500,2766
197.437000,2479
197.437500,2606
197.438000,0
197.438500,0
197.439000,0
197.439500,2307
197.440000,2577
197.440500,3094
197.441000,2519
197.441500,3032
197.442000,672
197.442500,1432
197.443000,882
197.443500,2015
197.444000,382
197.444500,2942
197.445000,836
197.445500,1271
197.446000,2198
197.446500,824
197.447000,1354
197.447500,1744
197.448000,2687
197.448500,0
197.449000,0
197.449500,2307
197.450000,2336
197.450500,2965
197.451000,2910
197.451500,2302
197.452000,2715
197.452500,1825
197.453000,2523
197.453500,2229
197.454000,2751
197.454500,2427
197.455000,1830
197.455500,2702
197.456000,1748
197.456500,0
197.457000,193
197.457500,2764
197.458000,0
197.458500,0
197.459000,0
197.459500,0
197.460000,3059
197.460500,1977
197.461000,2290
197.461500,1875
197.462000,2347
197.462500,2931
197.463000,2467
197.463500,1495
197.464000,1729
197.464500,747
197.465000,2515
197.465500,1364
197.466000,2984
197.466500,0
197.467000,2792
197.467500,1906
197.468000,1348
197.468500,460
197.469000,0
197.469500,2026
197.470000,3051
197.470500,2340
197.471000,2102
197.471500,2898
197.472000,2865
197.472500,2806
197.473000,0
197.473500,2127
197.474000,2753
197.474500,1305
197.475000,2728
197.475500,2526
197.476000,2757
197.476500,2594
197.477000,2686
197.477500,2005
197.478000,448
197.478500,0
197.479000,0
197.479500,0
197.480000,1534
197.480500,2154
197.481000,2884
197.481500,2530
197.482000,2423
197.482500,2942
197.483000,0
197.483500,1194
197.484000,1834
197.484500,2156
197.485000,2942
197.485500,0
197.486000,2804
197.486500,2590
197.487000,1889
197.487500,1987
197.488000,2449
197.488500,0
197.489000,0
197.489500,2949
197.490000,2003
197.490500,2720
197.491000,2700
197.491500,2476
197.492000,0
197.492500,2609
197.493000,2677
197.493500,2142
197.494000,1298
197.494500,1264
197.495000,1796
197.495500,841
197.496000,2072
197.496500,1407
197.497000,0
197.497500,1975
197.498000,0
197.498500,0
197.499000,0
197.499500,0
197.500000,3110
197.500500,1866
197.501000,1910
197.501500,543
197.502000,1863
197.502500,2956
197.503000,1715
197.503500,2192
197.504000,2876
197.504500,1967
197.505000,1206
197.505500,1525
197.506000,1666
197.506500,2360
197.507000,2934
197.507500,2850
197.508000,2900
197.508500,345
197.509000,0
197.509500,2389
197.510000,3001
197.510500,3034
197.511000,2775
197.511500,2427
197.512000,2043
197.512500,2375
197.513000,2639
197.513500,2263
197.514000,1558
197.514500,1318
197.515000,2203
197.515500,0
197.516000,2127
197.516500,2756
197.517000,2732
197.517500,1409
197.518000,0
197.518500,0
197.519000,0
197.519500,0
197.520000,1812
197.520500,880
197.521000,1358
197.521500,2902
197.522000,3102
197.522500,1776
197.523000,2579
197.523500,589
197.524000,587
197.524500,1620
197.525000,2305
197.525500,2282
197.526000,1585
197.526500,1519
197.527000,1464
197.527500,2669
197.528000,2884
197.528500,0
197.529000,0
197.529500,1875
197.530000,2212
197.530500,1140
197.531000,975
197.531500,2809
197.532000,2878
197.532500,1837
197.533000,2138
197.533500,2793
197.534000,2782
197.534500,0
197.535000,2043
197.535500,2875
197.536000,2462
197.536500,2818
197.537000,2710
197.537500,2583
197.538000,270
197.538500,0
197.539000,0
197.539500,0
197.540000,2270
197.540500,3083
197.541000,2587
197.541500,2591
197.542000,2642
197.542500,2973
197.543000,1167
197.543500,2157
197.544000,618
197.544500,2298
197.545000,1708
197.545500,2814
197.546000,2426
197.546500,2912
197.547000,2929
197.547500,2762
197.548000,2888
197.548500,135
197.549000,0
197.549500,3003
197.550000,3070
197.550500,1641
197.551000,738
197.551500,2799
197.552000,2222
197.552500,1720
197.553000,1927
197.553500,269
197.554000,2177
197.554500,0
197.555000,2316
197.555500,2814
197.556000,1722
197.556500,1727
197.557000,2559
197.557500,705
197.558000,15
197.558500,0
197.559000,0
197.559500,0
197.560000,2223
197.560500,3174
197.561000,2650
197.561500,2466
197.562000,2847
197.562500,1671
197.563000,1561
197.563500,0
197.564000,2962
197.564500,1799
197.565000,2224
197.565500,1460
197.566000,1992
197.566500,1653
197.567000,2967
197.567500,1737
197.568000,2698
197.568500,803
197.569000,0
197.569500,2555
197.570000,2900
197.570500,3017
197.571000,955
197.571500,2924
197.572000,2839
197.572500,1948
197.573000,1542
197.573500,2842
197.574000,1992
197.574500,1864
197.575000,0
197.575500,2714
197.576000,2042
197.576500,1571
197.577000,2789
197.577500,1672
197.578000,0
197.578500,0
197.579000,0
197.579500,0
197.580000,3088
197.580500,1301
197.581000,1806
197.581500,1532
197.582000,2022
197.582500,2633
197.583000,1350
197.583500,2903
197.584000,2910
197.584500,871
197.585000,1803
197.585500,1221
197.586000,2830
197.586500,1314
197.587000,2832
197.587500,2744
197.588000,2243
197.588500,963
197.589000,0
197.589500,3032
197.590000,1691
197.590500,1379
197.591000,0
197.591500,2047
197.592000,2926
197.592500,2176
197.593000,2891
197.593500,2500
197.594000,2670
197.594500,2093
197.595000,2270
197.595500,2834
197.596000,1902
197.596500,1461
197.597000,1916
197.597500,640
197.598000,688
197.598500,0
197.599000,0
197.599500,0
197.600000,2406
197.600500,3156
197.601000,2047
197.601500,2698
197.602000,1920
197.602500,1266
197.603000,1570
197.603500,2824
197.604000,1441
197.604500,0
197.605000,1594
197.605500,2119
197.606000,1744
197.606500,2732
197.607000,2958
197.607500,2750
197.608000,1810
197.608500,1063
197.609000,0
197.609500,2483
197.610000,1346
197.610500,2934
197.611000,740
197.611500,2783
197.612000,2944
197.612500,2542
197.613000,2119
197.613500,2894
197.614000,2767
197.614500,477
197.615000,2750
197.615500,2658
197.616000,1738
197.616500,678
197.617000,973
197.617500,1480
197.618000,1219
197.618500,0
197.619000,0
197.619500,0
197.620000,2816
197.620500,2108
197.621000,2612
197.621500,2656
197.622000,1879
197.622500,1705
197.623000,2401
197.623500,2904
197.624000,1183
197.624500,2215
197.625000,1814
197.625500,1639
197.626000,2731
197.626500,2434
197.627000,0
197.627500,2689
197.628000,2865
197.628500,1298
197.629000,0
197.629500,2811
197.630000,3037
197.630500,2897
197.631000,0
197.631500,2497
197.632000,1448
197.632500,2139
197.633000,2643
197.633500,2175
197.634000,2055
197.634500,791
197.635000,2761
197.635500,1431
197.636000,0
197.636500,1867
197.637000,0
197.637500,0
197.638000,0
197.638500,0
197.639000,0
197.639500,0
197.640000,2590
197.640500,2901
197.641000,1770
197.641500,2994
197.642000,2725
197.642500,935
197.643000,1350
197.643500,0
197.644000,1776
197.644500,1927
197.645000,2258
197.645500,1139
197.646000,2912
197.646500,2140
197.647000,2944
197.647500,2828
197.648000,2663
197.648500,1352
197.649000,0
197.649500,2012
197.650000,3011
197.650500,1592
197.651000,2803
197.651500,2873
197.652000,0
197.652500,2195
197.653000,1405
197.653500,2883
197.654000,1241
197.654500,0
197.655000,2773
197.655500,1562
197.656000,301
197.656500,2542
197.657000,2740
197.657500,2143
197.658000,834
197.658500,0
197.659000,0
197.659500,0
197.660000,2946
197.660500,2896
197.661000,2352
197.661500,2180
197.662000,2133
197.662500,960
197.663000,1992
197.663500,1833
197.664000,1304
197.664500,2875
197.665000,281
197.665500,2697
197.666000,1548
197.666500,1783
197.667000,2268
197.667500,1974
197.668000,2117
197.668500,1928
197.669000,0
197.669500,2972
197.670000,1834
197.670500,3011
197.671000,1300
197.671500,2964
197.672000,0
197.672500,2826
197.673000,1889
197.673500,2779
197.674000,1991
197.674500,2308
197.675000,2814
197.675500,1764
197.676000,2771
197.676500,2723
197.677000,2654
197.677500,2471
197.678000,1092
197.678500,0
197.679000,0
197.679500,0
197.680000,0
197.680500,3090
197.681000,0
197.681500,2794
197.682000,262
197.682500,2880
197.683000,2927
197.683500,3026
197.684000,2724
197.684500,1280
197.685000,2741
197.685500,1216
197.686000,2595
197.686500,2219
197.687000,0
197.687500,0
197.688000,2882
197.688500,1382
197.689000,0
197.689500,2243
197.690000,1174
197.690500,3080
197.691000,1186
197.691500,2630
197.692000,0
197.692500,2891
197.693000,2428
197.693500,1970
197.694000,2381
197.694500,928
197.695000,394
197.695500,2618
197.696000,2261
197.696500,1684
197.697000,2832
197.697500,2676
197.698000,717
197.698500,0
197.699000,0
197.699500,0
197.700000,2019
197.700500,1965
197.701000,2390
197.701500,2723
197.702000,2886
197.702500,3010
197.703000,1014
197.703500,1389
197.704000,1354
197.704500,2166
197.705000,1581
197.705500,2338
197.706000,2952
197.706500,2610
197.707000,1804
197.707500,2812
197.708000,1563
197.708500,1608
197.709000,0
197.709500,1372
197.710000,1374
197.710500,1775
197.711000,0
197.711500,2874
197.712000,2907
197.712500,0
197.713000,2225
197.713500,2620
197.714000,2218
197.714500,1974
197.715000,2766
197.715500,1702
197.716000,1993
197.716500,1808
197.717000,2786
197.717500,0
197.718000,0
197.718500,0
197.719000,0
197.719500,0
197.720000,2012
197.720500,2129
197.721000,0
197.721500,2721
197.722000,1413
197.722500,2860
197.723000,2920
197.723500,1148
197.724000,2733
197.724500,1398
197.725000,2955
197.725500,2016
197.726000,2136
197.726500,2380
197.727000,0
197.727500,0
197.728000,1588
197.728500,2137
197.729000,0
197.729500,2921
197.730000,0
197.730500,3082
197.731000,1781
197.731500,2592
197.732000,0
197.732500,2471
197.733000,1851
197.733500,2485
197.734000,2442
197.734500,1924
197.735000,2859
197.735500,1683
197.736000,2464
197.736500,2208
197.737000,2779
197.737500,2092
197.738000,1315
197.738500,0
197.739000,0
197.739500,0
197.740000,3051
197.740500,1579
197.741000,3131
197.741500,2910
197.742000,2221
197.742500,2101
197.743000,2771
197.743500,2726
197.744000,1858
197.744500,1349
197.745000,832
197.745500,2890
197.746000,0
197.746500,1780
197.747000,1803
197.747500,2783
197.748000,1416
197.748500,1047
197.749000,0
197.749500,1686
197.750000,2228
197.750500,1535
197.751000,1213
197.751500,2932
197.752000,2823
197.752500,2885
197.753000,1744
197.753500,1961
197.754000,2792
197.754500,2773
197.755000,2448
197.755500,1615
197.756000,2138
197.756500,2602
197.757000,2350
197.757500,1966
197.758000,1381
197.758500,0
197.759000,0
197.759500,0
197.760000,2113
197.760500,3004
197.761000,3034
197.761500,2608
197.762000,2904
197.762500,57
197.763000,1295
197.763500,2178
197.764000,2041
197.764500,0
197.765000,2884
197.765500,472
197.766000,2433
197.766500,2682
197.767000,509
197.767500,762
197.768000,2579
197.768500,2183
197.769000,0
197.769500,2134
197.770000,1380
197.770500,1838
197.771000,1478
197.771500,2864
197.772000,2904
197.772500,0
197.773000,2745
197.773500,0
197.774000,1554
197.774500,2721
197.775000,121
197.775500,2492
197.776000,651
197.776500,2837
197.777000,2722
197.777500,2518
197.778000,1074
197.778500,0
197.779000,422
197.779500,0
197.780000,3183
197.780500,2515
197.781000,3140
197.781500,1986
197.782000,1721
197.782500,2387
197.783000,2080
197.783500,2325
197.784000,1644
197.784500,1700
197.785000,0
197.785500,2537
197.786000,0
197.786500,1720
197.787000,2570
197.787500,2498
197.788000,2768
197.788500,1488
197.789000,0
197.789500,2562
197.790000,1212
197.790500,3072
197.791000,2966
197.791500,2197
197.792000,1811
197.792500,2647
197.793000,2870
197.793500,2834
197.794000,1425
197.794500,2487
197.795000,2459
197.795500,1177
197.796000,1483
197.796500,2682
197.797000,922
197.797500,2782
197.798000,1159
197.798500,0
197.799000,0
197.799500,0
197.800000,2842
197.800500,2961
197.801000,696
197.801500,1911
197.802000,1738
197.802500,2286
197.803000,2312
197.803500,2886
197.804000,927
197.804500,0
197.805000,2183
197.805500,1352
197.806000,1899
197.806500,248
197.807000,3021
197.807500,2393
197.808000,1983
197.808500,198
197.809000,0
197.809500,942
197.810000,1818
197.810500,1345
197.811000,1145
197.811500,780
197.812000,2249
197.812500,2704
197.813000,2156
197.813500,2822
197.814000,310
197.814500,2187
197.815000,2701
197.815500,1722
197.816000,1912
197.816500,2735
197.817000,2726
197.817500,2770
197.818000,1584
197.818500,0
197.819000,0
197.819500,0
197.820000,0
197.820500,2964
197.821000,2712
197.821500,1267
197.822000,2949
197.822500,2938
197.823000,1163
197.823500,2876
197.824000,1214
197.824500,1992
197.825000,1564
197.825500,1417
197.826000,1960
197.826500,2866
197.827000,2888
197.827500,2862
197.828000,2802
197.828500,1862
197.829000,0
197.829500,1347
197.830000,3070
197.830500,1501
197.831000,2952
197.831500,2822
197.832000,2123
197.832500,2264
197.833000,1790
197.833500,2819
197.834000,2768
197.834500,2413
197.835000,2846
197.835500,1902
197.836000,2418
197.836500,1298
197.837000,1942
197.837500,0
197.838000,2747
197.838500,0
197.839000,0
197.839500,0
197.840000,3172
197.840500,2006
197.841000,3043
197.841500,1537
197.842000,1344
197.842500,2828
197.843000,2936
197.843500,2061
197.844000,2796
197.844500,1476
197.845000,1816
197.845500,1650
197.846000,2906
197.846500,0
197.847000,2645
197.847500,2941
197.848000,1952
197.848500,10
197.849000,0
197.849500,2893
197.850000,2022
197.850500,2882
197.851000,2647
197.851500,3030
197.852000,2004
197.852500,2030
197.853000,2301
197.853500,2372
197.854000,1652
197.854500,1598
197.855000,1785
197.855500,2693
197.856000,2576
197.856500,0
197.857000,2663
197.857500,2675
197.858000,2732
197.858500,0
197.859000,0
197.859500,0
197.860000,3219
197.860500,1108
197.861000,3025
197.861500,2898
197.862000,2995
197.862500,2915
197.863000,330
197.863500,2866
197.864000,2910
197.864500,1553
197.865000,2196
197.865500,1504
197.866000,2453
197.866500,2802
197.867000,2897
197.867500,2839
197.868000,2302
197.868500,2839
197.869000,0
197.869500,3028
197.870000,2606
197.870500,2358
197.871000,2225
197.871500,49
197.872000,2680
197.872500,2822
197.873000,2702
197.873500,2042
197.874000,2678
197.874500,2153
197.875000,2395
197.875500,2784
197.876000,944
197.876500,2783
197.877000,2624
197.877500,2793
197.878000,1206
197.878500,0
197.879000,0
197.879500,0
197.880000,3137
197.880500,3130
197.881000,1410
197.881500,140
197.882000,867
197.882500,3066
197.883000,1985
197.883500,2910
197.884000,430
197.884500,2821
197.885000,1364
197.885500,261
197.886000,2199
197.886500,2923
197.887000,1873
197.887500,2079
197.888000,1520
197.888500,2248
197.889000,0
197.889500,1571
197.890000,0
197.890500,655
197.891000,2563
197.891500,3071
197.892000,2474
197.892500,2731
197.893000,2533
197.893500,2200
197.894000,2678
197.894500,1001
197.895000,2893
197.895500,2816
197.896000,1582
197.896500,0
197.897000,2735
197.897500,173
197.898000,2774
197.898500,0
197.899000,0
197.899500,0
197.900000,3242
197.900500,3058
197.901000,2950
197.901500,3089
197.902000,1758
197.902500,2126
197.903000,2830
197.903500,2206
197.904000,2884
197.904500,1029
197.905000,1020
197.905500,2196
197.906000,2442
197.906500,2101
197.907000,1255
197.907500,1985
197.908000,2467
197.908500,2024
197.909000,0
197.909500,2855
197.910000,2258
197.910500,2650
197.911000,2052
197.911500,0
197.912000,2098
197.912500,2642
197.913000,2894
197.913500,2183
197.914000,2599
197.914500,2293
197.915000,2855
197.915500,1952
197.916000,2871
197.916500,2813
197.917000,2524
197.917500,2668
197.918000,1161
197.918500,0
197.919000,0
197.919500,0
197.920000,2560
197.920500,1484
197.921000,2686
197.921500,3041
197.922000,1177
197.922500,2760
197.923000,102
197.923500,2313
197.924000,1678
197.924500,2157
197.925000,0
197.925500,1135
197.926000,2062
197.926500,2769
197.927000,1580
197.927500,2791
197.928000,1363
197.928500,2812
197.929000,0
197.929500,2067
197.930000,3015
197.930500,1971
197.931000,2959
197.931500,3000
197.932000,1933
197.932500,2767
197.933000,2398
197.933500,2450
197.934000,1904
197.934500,2612
197.935000,2755
197.935500,0
197.936000,2548
197.936500,2323
197.937000,1673
197.937500,2658
197.938000,2686
197.938500,0
197.939000,725
197.939500,0
197.940000,2288
197.940500,2356
197.941000,1930
197.941500,3114
197.942000,1594
197.942500,2114
197.943000,1892
197.943500,1915
197.944000,1865
197.944500,1558
197.945000,2142
197.945500,0
197.946000,1606
197.946500,1136
197.947000,1732
197.947500,2711
197.948000,2916
197.948500,2468
197.949000,0
197.949500,1276
197.950000,2400
197.950500,451
197.951000,2931
197.951500,2183
197.952000,1928
197.952500,1674
197.953000,2845
197.953500,1822
197.954000,2773
197.954500,1236
197.955000,2685
197.955500,0
197.956000,2663
197.956500,1027
197.957000,2345
197.957500,2694
197.958000,2816
197.958500,0
197.959000,0
197.959500,0
197.960000,2267
197.960500,2097
197.961000,3023
197.961500,3012
197.962000,2334
197.962500,2946
197.963000,2666
197.963500,2206
197.964000,1344
197.964500,0
197.965000,2319
197.965500,723
197.966000,1349
197.966500,2126
197.967000,2257
197.967500,2795
197.968000,2645
197.968500,2013
197.969000,0
197.969500,2830
197.970000,2442
197.970500,2664
197.971000,2837
197.971500,2897
197.972000,2109
197.972500,2879
197.973000,2923
197.973500,1111
197.974000,2594
197.974500,2713
197.975000,2156
197.975500,2374
197.976000,2890
197.976500,2779
197.977000,1438
197.977500,2794
197.978000,356
197.978500,0
197.979000,0
197.979500,0
197.980000,2471
197.980500,2600
197.981000,2606
197.981500,2004
197.982000,136
197.982500,1927
197.983000,2990
197.983500,2850
197.984000,2911
197.984500,2776
197.985000,693
197.985500,1522
197.986000,944
197.986500,2543
197.987000,0
197.987500,1723
197.988000,1976
197.988500,2001
197.989000,0
197.989500,1677
197.990000,2275
197.990500,3001
197.991000,1746
197.991500,2891
197.992000,2646
197.992500,1965
197.993000,2838
197.993500,2701
197.994000,1481
197.994500,2067
197.995000,2424
197.995500,904
197.996000,2264
197.996500,2030
197.997000,2393
197.997500,2689
197.998000,2818
197.998500,0
197.999000,0
197.999500,0
198.000000,2979
198.000500,956
198.001000,3131
198.001500,2732
198.002000,2768
198.002500,1670
198.003000,2784
198.003500,2752
198.004000,2775
198.004500,2248
198.005000,1818
198.005500,0
198.006000,939
198.006500,1376
198.007000,2746
198.007500,2922
198.008000,2878
198.008500,2064
198.009000,0
198.009500,581
198.010000,1314
198.010500,1893
198.011000,2916
198.011500,2959
198.012000,2667
198.012500,2932
198.013000,2588
198.013500,10
198.014000,1186
198.014500,1207
198.015000,1220
198.015500,2711
198.016000,1271
198.016500,1755
198.017000,2837
198.017500,0
198.018000,2234
198.018500,0
198.019000,0
198.019500,0
198.020000,2858
198.020500,2855
198.021000,0
198.021500,2932
198.022000,2904
198.022500,2197
198.023000,2872
198.023500,770
198.024000,2429
198.024500,1240
198.025000,2563
198.025500,0
198.026000,2966
198.026500,1927
198.027000,1440
198.027500,2690
198.028000,2847
198.028500,2456
198.029000,0
198.029500,1603
198.030000,1182
198.030500,3090
198.031000,376
198.031500,1998
198.032000,1987
198.032500,3016
198.033000,2279
198.033500,2452
198.034000,1655
198.034500,2431
198.035000,1997
198.035500,1928
198.036000,2903
198.036500,1940
198.037000,0
198.037500,2874
198.038000,2809
198.038500,0
198.039000,0
198.039500,0
198.040000,2972
198.040500,2524
198.041000,2842
198.041500,2798
198.042000,2892
198.042500,2768
198.043000,2954
198.043500,2818
198.044000,1934
198.044500,2120
198.045000,0
198.045500,1347
198.046000,1469
198.046500,1908
198.047000,1704
198.047500,2859
198.048000,2142
198.048500,2198
198.049000,1025
198.049500,1884
198.050000,889
198.050500,2757
198.051000,3030
198.051500,1514
198.052000,123
198.052500,2714
198.053000,2885
198.053500,2308
198.054000,1572
198.054500,2710
198.055000,1819
198.055500,1844
198.056000,2885
198.056500,1016
198.057000,2694
198.057500,2822
198.058000,1274
198.058500,0
198.059000,0
198.059500,448
198.060000,331
198.060500,3126
198.061000,3172
198.061500,2807
198.062000,2263
198.062500,2543
198.063000,2978
198.063500,0
198.064000,2046
198.064500,2893
198.065000,1787
198.065500,0
198.066000,2921
198.066500,1158
198.067000,2874
198.067500,2692
198.068000,2558
198.068500,0
198.069000,0
198.069500,1603
198.070000,2832
198.070500,2742
198.071000,3026
198.071500,2892
198.072000,2736
198.072500,2878
198.073000,2079
198.073500,2734
198.074000,1942
198.074500,2555
198.075000,1501
198.075500,1588
198.076000,2470
198.076500,2512
198.077000,2788
198.077500,800
198.078000,2016
198.078500,0
198.079000,0
198.079500,0
198.080000,2293
198.080500,2014
198.081000,3098
198.081500,2603
198.082000,1560
198.082500,3054
198.083000,1461
198.083500,2328
198.084000,2592
198.084500,2945
198.085000,1552
198.085500,899
198.086000,816
198.086500,2652
198.087000,871
198.087500,2256
198.088000,2068
198.088500,2742
198.089000,0
198.089500,0
198.090000,306
198.090500,2156
198.091000,0
198.091500,1593
198.092000,3006
198.092500,2495
198.093000,1546
198.093500,1920
198.094000,2812
198.094500,2828
198.095000,2138
198.095500,756
198.096000,0
198.096500,471
198.097000,2650
198.097500,2754
198.098000,1281
198.098500,0
198.099000,0
198.099500,0
198.100000,1568
198.100500,2655
198.101000,3191
198.101500,2810
198.102000,2930
198.102500,2350
198.103000,2988
198.103500,2847
198.104000,713
198.104500,1736
198.105000,1946
198.105500,197
198.106000,1868
198.106500,0
198.107000,990
198.107500,1372
198.108000,1423
198.108500,0
198.109000,0
198.109500,0
198.110000,2233
198.110500,2933
198.111000,3100
198.111500,557
198.112000,2981
198.112500,2960
198.113000,2927
198.113500,2374
198.114000,2288
198.114500,2790
198.115000,2331
198.115500,2534
198.116000,0
198.116500,0
198.117000,2740
198.117500,2835
198.118000,2756
198.118500,0
198.119000,0
198.119500,0
198.120000,2582
198.120500,2070
198.121000,2010
198.121500,3057
198.122000,2141
198.122500,2446
198.123000,1573
198.123500,2921
198.124000,2634
198.124500,2482
198.125000,2688
198.125500,1692
198.126000,2794
198.126500,2472
198.127000,2858
198.127500,792
198.128000,1525
198.128500,2636
198.129000,0
198.129500,2276
198.130000,2883
198.130500,2122
198.131000,2912
198.131500,524
198.132000,2952
198.132500,2941
198.133000,2194
198.133500,1142
198.134000,2753
198.134500,2041
198.135000,2383
198.135500,1979
198.136000,954
198.136500,2534
198.137000,2795
198.137500,2733
198.138000,1402
198.138500,0
198.139000,0
198.139500,0
198.140000,939
198.140500,3014
198.141000,1349
198.141500,2790
198.142000,2419
198.142500,3045
198.143000,2624
198.143500,2484
198.144000,2806
198.144500,2289
198.145000,787
198.145500,1991
198.146000,554
198.146500,2714
198.147000,2522
198.147500,2962
198.148000,1837
198.148500,2656
198.149000,0
198.149500,0
198.150000,1847
198.150500,2421
198.151000,1887
198.151500,1866
198.152000,2837
198.152500,2761
198.153000,2964
198.153500,2628
198.154000,2534
198.154500,2240
198.155000,2065
198.155500,409
198.156000,2801
198.156500,0
198.157000,1504
198.157500,2118
198.158000,2566
198.158500,0
198.159000,0
198.159500,0
198.160000,2966
198.160500,2938
198.161000,3196
198.161500,0
198.162000,3027
198.162500,2243
198.163000,2706
198.163500,2767
198.164000,0
198.164500,1983
198.165000,2080
198.165500,2746
198.166000,2528
198.166500,812
198.167000,2217
198.167500,2006
198.168000,1550
198.168500,2849
198.169000,0
198.169500,0
198.170000,823
198.170500,2185
198.171000,3062
198.171500,2150
198.172000,2976
198.172500,1248
198.173000,2505
198.173500,2854
198.174000,2606
198.174500,2621
198.175000,2129
198.175500,2598
198.176000,2894
198.176500,1973
198.177000,2825
198.177500,2749
198.178000,2795
198.178500,0
198.179000,0
198.179500,0
198.180000,3002
198.180500,1844
198.181000,3101
198.181500,2037
198.182000,1471
198.182500,3094
198.183000,1194
198.183500,2357
198.184000,2971
198.184500,1956
198.185000,2085
198.185500,2857
198.186000,2781
198.186500,223
198.187000,2882
198.187500,2668
198.188000,1194
198.188500,1540
198.189000,0
198.189500,0
198.190000,0
198.190500,1478
198.191000,3080
198.191500,634
198.192000,2939
198.192500,2165
198.193000,2955
198.193500,2191
198.194000,0
198.194500,2110
198.195000,800
198.195500,2740
198.196000,2724
198.196500,1681
198.197000,1650
198.197500,2824
198.198000,201
198.198500,0
198.199000,516
198.199500,77
198.200000,0
198.200500,2712
198.201000,2768
198.201500,2934
198.202000,3013
198.202500,3057
198.203000,2920
198.203500,950
198.204000,1962
198.204500,1148
198.205000,882
198.205500,1910
198.206000,1746
198.206500,557
198.207000,0
198.207500,1992
198.208000,1820
198.208500,2469
198.209000,0
198.209500,0
198.210000,1625
198.210500,1083
198.211000,3064
198.211500,0
198.212000,2346
198.212500,3031
198.213000,1239
198.213500,1591
198.214000,1780
198.214500,1828
198.215000,1827
198.215500,1715
198.216000,2207
198.216500,868
198.217000,2423
198.217500,2713
198.218000,2410
198.218500,0
198.219000,1687
198.219500,164
198.220000,3006
198.220500,1086
198.221000,2744
198.221500,3072
198.222000,3068
198.222500,2971
198.223000,2184
198.223500,2462
198.224000,5
198.224500,1060
198.225000,2846
198.225500,2666
198.226000,1528
198.226500,2233
198.227000,1539
198.227500,2081
198.228000,1982
198.228500,2285
198.229000,0
198.229500,0
198.230000,3032
198.230500,2938
198.231000,3044
198.231500,0
198.232000,1838
198.232500,2942
198.233000,2848
198.233500,1926
198.234000,1691
198.234500,2190
198.235000,1449
198.235500,2220
198.236000,2209
198.236500,2544
198.237000,2774
198.237500,2867
198.238000,954
198.238500,0
198.239000,0
198.239500,0
198.240000,0
198.240500,3140
198.241000,2678
198.241500,2982
198.242000,2028
198.242500,3073
198.243000,580
198.243500,1240
198.244000,1972
198.244500,2747
198.245000,0
198.245500,1386
198.246000,520
198.246500,2282
198.247000,1483
198.247500,2931
198.248000,0
198.248500,2972
198.249000,1065
198.249500,0
198.250000,2471
198.250500,2974
198.251000,2465
198.251500,459
198.252000,3080
198.252500,1946
198.253000,2780
198.253500,2587
198.254000,2964
198.254500,1792
198.255000,2574
198.255500,1394
198.256000,2818
198.256500,2354
198.257000,1600
198.257500,2732
198.258000,2292
198.258500,0
198.259000,0
198.259500,0
198.260000,0
198.260500,2894
198.261000,3126
198.261500,881
198.262000,3034
198.262500,2972
198.263000,2999
198.263500,2820
198.264000,1317
198.264500,95
198.265000,1724
198.265500,1984
198.266000,2080
198.266500,2038
198.267000,1591
198.267500,1797
198.268000,2955
198.268500,1288
198.269000,0
198.269500,0
198.270000,3114
198.270500,84
198.271000,2228
198.271500,0
198.272000,2777
198.272500,2810
198.273000,2874
198.273500,2928
198.274000,1071
198.274500,1694
198.275000,2691
198.275500,2877
198.276000,2923
198.276500,2433
198.277000,2863
198.277500,2867
198.278000,913
198.278500,0
198.279000,0
198.279500,0
198.280000,0
198.280500,3266
198.281000,3175
198.281500,2236
198.282000,352
198.282500,2166
198.283000,0
198.283500,2354
198.284000,2607
198.284500,1782
198.285000,1987
198.285500,1834
198.286000,2851
198.286500,1440
198.287000,0
198.287500,2963
198.288000,2122
198.288500,1956
198.289000,0
198.289500,0
198.290000,2759
198.290500,1802
198.291000,3066
198.291500,701
198.292000,2598
198.292500,3004
198.293000,0
198.293500,2344
198.294000,2834
198.294500,1679
198.295000,1577
198.295500,2879
198.296000,2795
198.296500,2718
198.297000,2496
198.297500,2771
198.298000,2324
198.298500,0
198.299000,0
198.299500,0
198.300000,0
198.300500,3163
198.301000,1571
198.301500,2456
198.302000,2620
198.302500,2843
198.303000,1537
198.303500,2887
198.304000,0
198.304500,1777
198.305000,2710
198.305500,1433
198.306000,1017
198.306500,2256
198.307000,1329
198.307500,2896
198.308000,2714
198.308500,2948
198.309000,0
198.309500,0
198.310000,2424
198.310500,3011
198.311000,2431
198.311500,1887
198.312000,2405
198.312500,3039
198.313000,1507
198.313500,2314
198.314000,2826
198.314500,2883
198.315000,1826
198.315500,2023
198.316000,548
198.316500,2864
198.317000,2838
198.317500,2872
198.318000,2721
198.318500,0
198.319000,0
198.319500,0
198.320000,1700
198.320500,3131
198.321000,2176
198.321500,2947
198.322000,3103
198.322500,1383
198.323000,2048
198.323500,1902
198.324000,2888
198.324500,2695
198.325000,2602
198.325500,2710
198.326000,0
198.326500,1402
198.327000,1716
198.327500,2868
198.328000,0
198.328500,1930
198.329000,438
198.329500,0
198.330000,1163
198.330500,2939
198.331000,1460
198.331500,2122
198.332000,2130
198.332500,2938
198.333000,2572
198.333500,2842
198.334000,1292
198.334500,2310
198.335000,2720
198.335500,1850
198.336000,1404
198.336500,1420
198.337000,0
198.337500,2779
198.338000,1159
198.338500,0
198.339000,0
198.339500,0
198.340000,0
198.340500,2472
198.341000,2908
198.341500,2701
198.342000,3038
198.342500,1812
198.343000,3014
198.343500,2780
198.344000,2295
198.344500,2142
198.345000,2162
198.345500,637
198.346000,1370
198.346500,2772
198.347000,2839
198.347500,2657
198.348000,1882
198.348500,1466
198.349000,1449
198.349500,0
198.350000,1853
198.350500,3161
198.351000,1467
198.351500,88
198.352000,2893
198.352500,3006
198.353000,2626
198.353500,2893
198.354000,2358
198.354500,2088
198.355000,2058
198.355500,2894
198.356000,1940
198.356500,2397
198.357000,2892
198.357500,2136
198.358000,2003
198.358500,0
198.359000,0
198.359500,0
198.360000,0
198.360500,2695
198.361000,2087
198.361500,2996
198.362000,0
198.362500,2925
198.363000,2276
198.363500,2931
198.364000,2952
198.364500,2260
198.365000,2524
198.365500,2898
198.366000,2382
198.366500,1091
198.367000,2861
198.367500,1885
198.368000,1961
198.368500,1479
198.369000,0
198.369500,0
198.370000,2327
198.370500,2593
198.371000,2183
198.371500,649
198.372000,39
198.372500,2145
198.373000,2336
198.373500,2547
198.374000,2041
198.374500,2490
198.375000,2390
198.375500,2012
198.376000,2336
198.376500,1854
198.377000,0
198.377500,2622
198.378000,1394
198.378500,0
198.379000,0
198.379500,0
198.380000,0
198.380500,1948
198.381000,1856
198.381500,2993
198.382000,2974
198.382500,1937
198.383000,1851
198.383500,0
198.384000,2968
198.384500,2526
198.385000,2066
198.385500,0
198.386000,700
198.386500,1378
198.387000,2635
198.387500,2073
198.388000,2831
198.388500,0
198.389000,764
198.389500,0
198.390000,1961
198.390500,0
198.391000,1859
198.391500,133
198.392000,3086
198.392500,1317
198.393000,2982
198.393500,2768
198.394000,1498
198.394500,2855
198.395000,1915
198.395500,2903
198.396000,2836
198.396500,1910
198.397000,2932
198.397500,2391
198.398000,2260
198.398500,764
198.399000,0
198.399500,0
198.400000,0
198.400500,2940
198.401000,2875
198.401500,2651
198.402000,2372
198.402500,1656
198.403000,2141
198.403500,2075
198.404000,1727
198.404500,2614
198.405000,1141
198.405500,2735
198.406000,0
198.406500,1948
198.407000,1847
198.407500,1782
198.408000,1746
198.408500,2968
198.409000,557
198.409500,0
198.410000,2131
198.410500,2165
198.411000,2166
198.411500,757
198.412000,3103
198.412500,2242
198.413000,2627
198.413500,1191
198.414000,2157
198.414500,1308
198.415000,1664
198.415500,2945
198.416000,2020
198.416500,2851
198.417000,2908
198.417500,2814
198.418000,2269
198.418500,1164
198.419000,0
198.419500,0
198.420000,0
198.420500,3178
198.421000,2108
198.421500,3035
198.422000,3118
198.422500,3044
198.423000,2941
198.423500,2633
198.424000,2898
198.424500,1032
198.425000,1565
198.425500,2841
198.426000,888
198.426500,1122
198.427000,2022
198.427500,791
198.428000,1237
198.428500,2263
198.429000,1463
198.429500,0
198.430000,3028
198.430500,2959
198.431000,2890
198.431500,2324
198.432000,3032
198.432500,2478
198.433000,1574
198.433500,100
198.434000,1748
198.434500,2183
198.435000,1781
198.435500,1728
198.436000,1748
198.436500,2538
198.437000,2530
198.437500,1564
198.438000,2504
198.438500,282
198.439000,0
198.439500,0
198.440000,0
198.440500,3134
198.441000,0
198.441500,1413
198.442000,3019
198.442500,3031
198.443000,2981
198.443500,1847
198.444000,2763
198.444500,1549
198.445000,1211
198.445500,1262
198.446000,1141
198.446500,1162
198.447000,2042
198.447500,1330
198.448000,2745
198.448500,0
198.449000,1677
198.449500,0
198.450000,1620
198.450500,2928
198.451000,180
198.451500,1244
198.452000,1733
198.452500,2446
198.453000,2906
198.453500,3004
198.454000,2864
198.454500,1089
198.455000,2665
198.455500,1579
198.456000,0
198.456500,568
198.457000,2555
198.457500,1863
198.458000,2694
198.458500,827
198.459000,0
198.459500,0
198.460000,0
198.460500,2146
198.461000,2482
198.461500,1562
198.462000,2206
198.462500,2479
198.463000,1486
198.463500,2857
198.464000,2594
198.464500,2804
198.465000,2184
198.465500,1767
198.466000,0
198.466500,2842
198.467000,1216
198.467500,1928
198.468000,2523
198.468500,1579
198.469000,1293
198.469500,0
198.470000,2080
198.470500,2408
198.471000,1918
198.471500,0
198.472000,3064
198.472500,1867
198.473000,2942
198.473500,2791
198.474000,1544
198.474500,2842
198.475000,2886
198.475500,1144
198.476000,2085
198.476500,2610
198.477000,2164
198.477500,2480
198.478000,887
198.478500,466
198.479000,0
198.479500,0
198.480000,0
198.480500,2716
198.481000,3155
198.481500,3030
198.482000,1758
198.482500,2943
198.483000,2340
198.483500,320
198.484000,2342
198.484500,1339
198.485000,1872
198.485500,2269
198.486000,1804
198.486500,2846
198.487000,1320
198.487500,0
198.488000,2788
198.488500,1278
198.489000,1518
198.489500,0
198.490000,1692
198.490500,2948
198.491000,0
198.491500,1347
198.492000,2399
198.492500,2850
198.493000,2951
198.493500,2382
198.494000,2738
198.494500,2459
198.495000,503
198.495500,1942
198.496000,848
198.496500,2704
198.497000,1594
198.497500,1418
198.498000,2699
198.498500,765
198.499000,0
198.499500,0
198.500000,0
198.500500,2388
198.501000,2812
198.501500,2698
198.502000,2144
198.502500,1442
198.503000,3012
198.503500,2695
198.504000,2928
198.504500,1679
198.505000,2768
198.505500,763
198.506000,2826
198.506500,2937
198.507000,1952
198.507500,2240
198.508000,665
198.508500,2849
198.509000,1722
198.509500,0
198.510000,2933
198.510500,1396
198.511000,2349
198.511500,0
198.512000,2743
198.512500,0
198.513000,1495
198.513500,3028
198.514000,693
198.514500,1738
198.515000,1589
198.515500,2727
198.516000,2051
198.516500,2854
198.517000,2439
198.517500,779
198.518000,2533
198.518500,78
198.519000,0
198.519500,0
198.520000,0
198.520500,3023
198.521000,1914
198.521500,3148
198.522000,2288
198.522500,2242
198.523000,1609
198.523500,949
198.524000,440
198.524500,2079
198.525000,2338
198.525500,358
198.526000,634
198.526500,2924
198.527000,1829
198.527500,1316
198.528000,2894
198.528500,1941
198.529000,1376
198.529500,0
198.530000,1613
198.530500,2742
198.531000,1998
198.531500,2099
198.532000,2311
198.532500,2772
198.533000,2281
198.533500,2017
198.534000,2123
198.534500,2359
198.535000,2779
198.535500,1619
198.536000,2016
198.536500,2026
198.537000,2672
198.537500,0
198.538000,2179
198.538500,277
198.539000,0
198.539500,0
198.540000,0
198.540500,3263
198.541000,1573
198.541500,592
198.542000,2217
198.542500,2108
198.543000,2352
198.543500,2974
198.544000,1731
198.544500,2912
198.545000,2790
198.545500,1914
198.546000,2772
198.546500,1511
198.547000,976
198.547500,1467
198.548000,705
198.548500,1031
198.549000,2356
198.549500,0
198.550000,0
198.550500,849
198.551000,2986
198.551500,1220
198.552000,1585
198.552500,306
198.553000,470
198.553500,2911
198.554000,2785
198.554500,2185
198.555000,1808
198.555500,2423
198.556000,2686
198.556500,0
198.557000,1248
198.557500,2666
198.558000,2816
198.558500,2204
198.559000,0
198.559500,0
198.560000,0
198.560500,1247
198.561000,2957
198.561500,3005
198.562000,2213
198.562500,2966
198.563000,0
198.563500,2995
198.564000,2898
198.564500,2144
198.565000,2832
198.565500,2219
198.566000,1352
198.566500,2172
198.567000,1498
198.567500,2697
198.568000,1733
198.568500,1681
198.569000,1984
198.569500,0
198.570000,0
198.570500,1306
198.571000,2931
198.571500,1817
198.572000,2443
198.572500,2937
198.573000,2879
198.573500,2219
198.574000,2793
198.574500,2626
198.575000,2863
198.575500,1672
198.576000,1479
198.576500,2802
198.577000,2161
198.577500,2460
198.578000,1594
198.578500,264
198.579000,0
198.579500,0
198.580000,0
198.580500,2473
198.581000,2760
198.581500,2547
198.582000,310
198.582500,2968
198.583000,3078
198.583500,2238
198.584000,1800
198.584500,66
198.585000,1344
198.585500,1215
198.586000,2679
198.586500,1515
198.587000,1706
198.587500,2230
198.588000,1391
198.588500,1835
198.589000,2642
198.589500,136
198.590000,2430
198.590500,2822
198.591000,1961
198.591500,0
198.592000,3033
198.592500,1596
198.593000,2105
198.593500,2340
198.594000,2311
198.594500,1515
198.595000,1809
198.595500,2846
198.596000,2697
198.596500,2660
198.597000,0
198.597500,1674
198.598000,2159
198.598500,2326
198.599000,0
198.599500,0
198.600000,0
198.600500,1723
198.601000,2962
198.601500,1932
198.602000,3090
198.602500,1998
198.603000,2882
198.603500,2576
198.604000,2594
198.604500,2914
198.605000,2846
198.605500,0
198.606000,1504
198.606500,1264
198.607000,221
198.607500,709
198.608000,2866
198.608500,2038
198.609000,1997
198.609500,0
198.610000,0
198.610500,2689
198.611000,3057
198.611500,3108
198.612000,2365
198.612500,1326
198.613000,2988
198.613500,2952
198.614000,2926
198.614500,2532
198.615000,2966
198.615500,2453
198.616000,0
198.616500,2673
198.617000,0
198.617500,2873
198.618000,2882
198.618500,2795
198.619000,0
198.619500,0
198.620000,0
198.620500,2844
198.621000,2957
198.621500,3086
198.622000,1138
198.622500,3044
198.623000,3064
198.623500,2138
198.624000,2389
198.624500,2080
198.625000,2192
198.625500,2937
198.626000,1717
198.626500,2368
198.627000,744
198.627500,1811
198.628000,0
198.628500,2518
198.629000,2800
198.629500,0
198.630000,1395
198.630500,1700
198.631000,2555
198.631500,2686
198.632000,1691
198.632500,2010
198.633000,2280
198.633500,2857
198.634000,2070
198.634500,1188
198.635000,1658
198.635500,2639
198.636000,2692
198.636500,2538
198.637000,2646
198.637500,2525
198.638000,744
198.638500,654
198.639000,0
198.639500,0
198.640000,0
198.640500,2678
198.641000,3182
198.641500,2341
198.642000,3137
198.642500,2252
198.643000,2899
198.643500,2036
198.644000,2511
198.644500,1625
198.645000,2750
198.645500,2535
198.646000,0
198.646500,935
198.647000,530
198.647500,2723
198.648000,2529
198.648500,1941
198.649000,2018
198.649500,0
198.650000,1234
198.650500,2723
198.651000,1204
198.651500,2281
198.652000,2291
198.652500,1576
198.653000,2636
198.653500,2122
198.654000,2902
198.654500,2843
198.655000,2672
198.655500,2275
198.656000,1055
198.656500,1468
198.657000,0
198.657500,1194
198.658000,2401
198.658500,2710
198.659000,0
198.659500,0
198.660000,0
198.660500,3036
198.661000,1906
198.661500,3108
198.662000,0
198.662500,1426
198.663000,199
198.663500,1984
198.664000,2293
198.664500,2544
198.665000,2848
198.665500,0
198.666000,2877
198.666500,272
198.667000,2346
198.667500,2118
198.668000,1811
198.668500,1232
198.669000,1738
198.669500,0
198.670000,567
198.670500,0
198.671000,1305
198.671500,2406
198.672000,2581
198.672500,1851
198.673000,1146
198.673500,2926
198.674000,2776
198.674500,2935
198.675000,2934
198.675500,1405
198.676000,1122
198.676500,2611
198.677000,2505
198.677500,1902
198.678000,2708
198.678500,518
198.679000,0
198.679500,0
198.680000,0
198.680500,3230
198.681000,3054
198.681500,3162
198.682000,1886
198.682500,2526
198.683000,2340
198.683500,1984
198.684000,2151
198.684500,1648
198.685000,2020
198.685500,2130
198.686000,2918
198.686500,528
198.687000,0
198.687500,1141
198.688000,2821
198.688500,1340
198.689000,2646
198.689500,0
198.690000,1163
198.690500,1986
198.691000,719
198.691500,3071
198.692000,2979
198.692500,1796
198.693000,1598
198.693500,2977
198.694000,2014
198.694500,2699
198.695000,2909
198.695500,2926
198.696000,562
198.696500,1468
198.697000,2709
198.697500,561
198.698000,2875
198.698500,1473
198.699000,0
198.699500,0
198.700000,1200
198.700500,1503
198.701000,1294
198.701500,2210
198.702000,3147
198.702500,2973
198.703000,2920
198.703500,2163
198.704000,1460
198.704500,2842
198.705000,2606
198.705500,2893
198.706000,1952
198.706500,1715
198.707000,1724
198.707500,977
198.708000,0
198.708500,1792
198.709000,2643
198.709500,0
198.710000,0
198.710500,1751
198.711000,2168
198.711500,2974
198.712000,965
198.712500,2710
198.713000,2498
198.713500,2887
198.714000,502
198.714500,2672
198.715000,2767
198.715500,1874
198.716000,2646
198.716500,2637
198.717000,2854
198.717500,1941
198.718000,1634
198.718500,1626
198.719000,0
198.719500,0
198.720000,0
198.720500,1797
198.721000,1350
198.721500,2425
198.722000,2623
198.722500,1788
198.723000,2982
198.723500,2822
198.724000,2869
198.724500,2223
198.725000,2702
198.725500,1414
198.726000,2342
198.726500,1555
198.727000,1870
198.727500,1767
198.728000,0
198.728500,2698
198.729000,0
198.729500,0
198.730000,2012
198.730500,970
198.731000,1985
198.731500,2247
198.732000,1810
198.732500,3048
198.733000,0
198.733500,2215
198.734000,2898
198.734500,2325
198.735000,2172
198.735500,349
198.736000,2744
198.736500,2908
198.737000,2401
198.737500,2868
198.738000,2869
198.738500,2848
198.739000,0
198.739500,0
198.740000,0
198.740500,3101
198.741000,2751
198.741500,2132
198.742000,1870
198.742500,3018
198.743000,1769
198.743500,2019
198.744000,2924
198.744500,2900
198.745000,2873
198.745500,2857
198.746000,130
198.746500,1247
198.747000,0
198.747500,2294
198.748000,1535
198.748500,885
198.749000,2199
198.749500,0
198.750000,823
198.750500,0
198.751000,1727
198.751500,3058
198.752000,3104
198.752500,2012
198.753000,2082
198.753500,2885
198.754000,2957
198.754500,2791
198.755000,2681
198.755500,2810
198.756000,2905
198.756500,1290
198.757000,2771
198.757500,2810
198.758000,2295
198.758500,2831
198.759000,0
198.759500,0
198.760000,0
198.760500,2171
198.761000,3198
198.761500,2408
198.762000,1995
198.762500,0
198.763000,2000
198.763500,2321
198.764000,2341
198.764500,2685
198.765000,2491
198.765500,422
198.766000,2556
198.766500,1453
198.767000,1442
198.767500,1396
198.768000,2303
198.768500,1063
198.769000,2855
198.769500,0
198.770000,3030
198.770500,1751
198.771000,1594
198.771500,1772
198.772000,2797
198.772500,2042
198.773000,0
198.773500,1374
198.774000,1914
198.774500,2987
198.775000,2303
198.775500,1326
198.776000,1687
198.776500,2002
198.777000,599
198.777500,1765
198.778000,2576
198.778500,1018
198.779000,0
198.779500,0
198.780000,0
198.780500,3204
198.781000,3095
198.781500,1772
198.782000,0
198.782500,2531
198.783000,1854
198.783500,2551
198.784000,2504
198.784500,1946
198.785000,1509
198.785500,2560
198.786000,2100
198.786500,901
198.787000,2032
198.787500,1396
198.788000,2834
198.788500,2943
198.789000,646
198.789500,0
198.790000,2120
198.790500,2886
198.791000,2881
198.791500,3041
198.792000,1514
198.792500,2986
198.793000,1931
198.793500,3067
198.794000,2948
198.794500,2428
198.795000,2847
198.795500,2836
198.796000,2875
198.796500,2082
198.797000,2858
198.797500,2596
198.798000,2543
198.798500,1588
198.799000,0
198.799500,0
198.800000,0
198.800500,2857
198.801000,1557
198.801500,2086
198.802000,2524
198.802500,2946
198.803000,3042
198.803500,2964
198.804000,1892
198.804500,2890
198.805000,2690
198.805500,2814
198.806000,0
198.806500,1796
198.807000,1301
198.807500,2850
198.808000,1890
198.808500,1440
198.809000,2846
198.809500,0
198.810000,605
198.810500,2971
198.811000,2218
198.811500,2776
198.812000,2552
198.812500,1340
198.813000,2970
198.813500,2895
198.814000,2625
198.814500,1667
198.815000,2174
198.815500,1984
198.816000,293
198.816500,2386
198.817000,1525
198.817500,2786
198.818000,1682
198.818500,529
198.819000,0
198.819500,0
198.820000,0
198.820500,2197
198.821000,3257
198.821500,2916
198.822000,2849
198.822500,2374
198.823000,3027
198.823500,3058
198.824000,2995
198.824500,2293
198.825000,935
198.825500,2034
198.826000,1663
198.826500,2720
198.827000,1175
198.827500,2008
198.828000,1842
198.828500,0
198.829000,1497
198.829500,0
198.830000,3008
198.830500,2174
198.831000,2988
198.831500,2287
198.832000,1635
198.832500,2713
198.833000,3110
198.833500,2502
198.834000,2948
198.834500,2696
198.835000,1657
198.835500,1263
198.836000,2904
198.836500,2314
198.837000,1406
198.837500,2805
198.838000,2329
198.838500,2820
198.839000,0
198.839500,0
198.840000,0
198.840500,3186
198.841000,2205
198.841500,1508
198.842000,2928
198.842500,2394
198.843000,2231
198.843500,2776
198.844000,1949
198.844500,2365
198.845000,1775
198.845500,1838
198.846000,1822
198.846500,1019
198.847000,2512
198.847500,2742
198.848000,1748
198.848500,0
198.849000,1822
198.849500,0
198.850000,0
198.850500,2009
198.851000,3106
198.851500,2081
198.852000,1254
198.852500,2510
198.853000,3012
198.853500,2614
198.854000,2764
198.854500,2855
198.855000,0
198.855500,2150
198.856000,366
198.856500,1634
198.857000,1606
198.857500,2828
198.858000,2633
198.858500,1286
198.859000,0
198.859500,0
198.860000,0
198.860500,1022
198.861000,3198
198.861500,1501
198.862000,2394
198.862500,3034
198.863000,2714
198.863500,2958
198.864000,2975
198.864500,2971
198.865000,1288
198.865500,2521
198.866000,2850
198.866500,0
198.867000,1345
198.867500,1359
198.868000,2126
198.868500,1328
198.869000,2058
198.869500,0
198.870000,106
198.870500,1503
198.871000,3054
198.871500,2915
198.872000,1031
198.872500,3055
198.873000,2940
198.873500,2941
198.874000,322
198.874500,2981
198.875000,2226
198.875500,1339
198.876000,1796
198.876500,2362
198.877000,1763
198.877500,2663
198.878000,2284
198.878500,2472
198.879000,0
198.879500,356
198.880000,0
198.880500,2616
198.881000,3131
198.881500,2624
198.882000,3082
198.882500,3093
198.883000,3091
198.883500,3011
198.884000,2884
198.884500,2925
198.885000,2611
198.885500,2819
198.886000,2809
198.886500,1339
198.887000,1012
198.887500,0
198.888000,757
198.888500,1372
198.889000,2820
198.889500,0
198.890000,819
198.890500,2166
198.891000,3045
198.891500,1992
198.892000,3015
198.892500,2036
198.893000,1920
198.893500,3052
198.894000,2982
198.894500,2806
198.895000,2718
198.895500,2621
198.896000,2767
198.896500,1463
198.897000,1793
198.897500,2853
198.898000,2724
198.898500,2663
198.899000,0
198.899500,0
198.900000,123
198.900500,1493
198.901000,2418
198.901500,0
198.902000,2119
198.902500,2689
198.903000,2802
198.903500,2901
198.904000,0
198.904500,2038
198.905000,2841
198.905500,1886
198.906000,2008
198.906500,1034
198.907000,2360
198.907500,1061
198.908000,0
198.908500,2084
198.909000,1658
198.909500,0
198.910000,1151
198.910500,1389
198.911000,3095
198.911500,0
198.912000,1985
198.912500,2862
198.913000,1490
198.913500,2434
198.914000,3046
198.914500,2582
198.915000,591
198.915500,1632
198.916000,2128
198.916500,0
198.917000,2073
198.917500,2195
198.918000,0
198.918500,2454
198.919000,0
198.919500,0
198.920000,0
198.920500,2554
198.921000,3187
198.921500,2741
198.922000,3042
198.922500,2739
198.923000,3039
198.923500,3014
198.924000,3050
198.924500,2042
198.925000,2224
198.925500,1863
198.926000,1522
198.926500,1723
198.927000,1010
198.927500,1839
198.928000,1928
198.928500,1716
198.929000,1312
198.929500,0
198.930000,0
198.930500,1229
198.931000,2971
198.931500,3120
198.932000,1809
198.932500,2888
198.933000,2338
198.933500,2941
198.934000,3039
198.934500,2883
198.935000,2914
198.935500,2688
198.936000,2842
198.936500,2782
198.937000,749
198.937500,1575
198.938000,2401
198.938500,2576
198.939000,0
198.939500,0
198.940000,0
198.940500,3214
198.941000,2088
198.941500,1890
198.942000,3024
198.942500,1877
198.943000,243
198.943500,2139
198.944000,1162
198.944500,2087
198.945000,2906
198.945500,2908
198.946000,2216
198.946500,1157
198.947000,1206
198.947500,644
198.948000,644
198.948500,1318
198.949000,2224
198.949500,0
198.950000,0
198.950500,962
198.951000,2758
198.951500,1359
198.952000,2140
198.952500,3083
198.953000,1837
198.953500,2893
198.954000,1747
198.954500,2414
198.955000,2512
198.955500,2950
198.956000,2033
198.956500,1662
198.957000,2600
198.957500,2916
198.958000,2564
198.958500,2864
198.959000,0
198.959500,0
198.960000,0
198.960500,0
198.961000,2123
198.961500,3150
198.962000,3189
198.962500,2236
198.963000,2884
198.963500,2848
198.964000,3048
198.964500,2082
198.965000,1504
198.965500,2781
198.966000,2650
198.966500,2313
198.967000,1429
198.967500,2809
198.968000,2514
198.968500,1063
198.969000,1864
198.969500,0
198.970000,0
198.970500,2265
198.971000,2321
198.971500,2846
198.972000,284
198.972500,3179
198.973000,0
198.973500,3033
198.974000,3004
198.974500,1061
198.975000,1798
198.975500,2204
198.976000,693
198.976500,1853
198.977000,2948
198.977500,2064
198.978000,2770
198.978500,2868
198.979000,0
198.979500,0
198.980000,0
198.980500,3009
198.981000,2286
198.981500,3038
198.982000,3217
198.982500,3048
198.983000,3166
198.983500,2544
198.984000,2881
198.984500,944
198.985000,2706
198.985500,2796
198.986000,979
198.986500,2341
198.987000,1556
198.987500,2748
198.988000,1092
198.988500,2096
198.989000,1122
198.989500,0
198.990000,1951
198.990500,448
198.991000,2354
198.991500,1444
198.992000,0
198.992500,1899
198.993000,2619
198.993500,1320
198.994000,2862
198.994500,2290
198.995000,2611
198.995500,2846
198.996000,2415
198.996500,1709
198.997000,1833
198.997500,2842
198.998000,2842
198.998500,2688
198.999000,0
198.999500,0
199.000000,0
199.000500,0
199.001000,2988
199.001500,2792
199.002000,2728
199.002500,2118
199.003000,3026
199.003500,1201
199.004000,2980
199.004500,2983
199.005000,1749
199.005500,2418
199.006000,2790
199.006500,2845
199.007000,1533
199.007500,2670
199.008000,2052
199.008500,2435
199.009000,2092
199.009500,0
199.010000,0
199.010500,1981
199.011000,1391
199.011500,1828
199.012000,893
199.012500,2281
199.013000,233
199.013500,2520
199.014000,3033
199.014500,1904
199.015000,1515
199.015500,2104
199.016000,2660
199.016500,2702
199.017000,1124
199.017500,2729
199.018000,2640
199.018500,2799
199.019000,0
199.019500,0
199.020000,0
199.020500,0
199.021000,776
199.021500,2009
199.022000,3105
199.022500,0
199.023000,3067
199.023500,3059
199.024000,3022
199.024500,2122
199.025000,2113
199.025500,2840
199.026000,908
199.026500,1722
199.027000,1921
199.027500,1296
199.028000,1223
199.028500,0
199.029000,2363
199.029500,0
199.030000,0
199.030500,3028
199.031000,1392
199.031500,1766
199.032000,2997
199.032500,2799
199.033000,1591
199.033500,1691
199.034000,2011
199.034500,2457
199.035000,2833
199.035500,2330
199.036000,0
199.036500,1520
199.037000,2906
199.037500,690
199.038000,2718
199.038500,2623
199.039000,0
199.039500,0
199.040000,0
199.040500,2042
199.041000,3086
199.041500,1622
199.042000,3200
199.042500,2601
199.043000,3000
199.043500,2165
199.044000,2898
199.044500,2856
199.045000,1558
199.045500,487
199.046000,2633
199.046500,1459
199.047000,2817
199.047500,1414
199.048000,2796
199.048500,1962
199.049000,916
199.049500,0
199.050000,0
199.050500,2973
199.051000,453
199.051500,1718
199.052000,123
199.052500,2190
199.053000,1683
199.053500,2982
199.054000,2029
199.054500,2174
199.055000,2943
199.055500,2849
199.056000,2090
199.056500,2030
199.057000,2913
199.057500,2328
199.058000,1203
199.058500,2853
199.059000,0
199.059500,0
199.060000,0
199.060500,0
199.061000,1160
199.061500,2867
199.062000,2092
199.062500,284
199.063000,2463
199.063500,2923
199.064000,1620
199.064500,2926
199.065000,2930
199.065500,2230
199.066000,2885
199.066500,1183
199.067000,1809
199.067500,760
199.068000,1878
199.068500,1641
199.069000,1723
199.069500,0
199.070000,0
199.070500,1445
199.071000,2855
199.071500,1593
199.072000,0
199.072500,2416
199.073000,1410
199.073500,0
199.074000,2479
199.074500,2972
199.075000,0
199.075500,2162
199.076000,2043
199.076500,2932
199.077000,2842
199.077500,2128
199.078000,2176
199.078500,2198
199.079000,442
199.079500,0
199.080000,0
199.080500,840
199.081000,1867
199.081500,1640
199.082000,3240
199.082500,2927
199.083000,2236
199.083500,2136
199.084000,2710
199.084500,2736
199.085000,2811
199.085500,2112
199.086000,575
199.086500,1390
199.087000,1402
199.087500,1164
199.088000,1510
199.088500,2717
199.089000,2751
199.089500,0
199.090000,0
199.090500,2013
199.091000,0
199.091500,1664
199.092000,862
199.092500,1298
199.093000,765
199.093500,1722
199.094000,2208
199.094500,2606
199.095000,2872
199.095500,2022
199.096000,2968
199.096500,2204
199.097000,2184
199.097500,2693
199.098000,0
199.098500,2882
199.099000,0
199.099500,0
199.100000,0
199.100500,0
199.101000,3126
199.101500,2993
199.102000,3076
199.102500,2422
199.103000,2367
199.103500,2269
199.104000,2870
199.104500,2524
199.105000,309
199.105500,2689
199.106000,2022
199.106500,2632
199.107000,2832
199.107500,0
199.108000,2854
199.108500,1489
199.109000,1838
199.109500,0
199.110000,0
199.110500,3020
199.111000,875
199.111500,2799
199.112000,1987
199.112500,1944
199.113000,2183
199.113500,2313
199.114000,1169
199.114500,2316
199.115000,2834
199.115500,1334
199.116000,1983
199.116500,0
199.117000,1799
199.117500,2798
199.118000,2831
199.118500,1640
199.119000,0
199.119500,0
199.120000,0
199.120500,0
199.121000,1856
199.121500,2319
199.122000,2687
199.122500,3095
199.123000,3063
199.123500,2953
199.124000,2586
199.124500,2372
199.125000,2555
199.125500,2750
199.126000,1378
199.126500,2818
199.127000,79
199.127500,1676
199.128000,2730
199.128500,2176
199.129000,0
199.129500,1431
199.130000,0
199.130500,2309
199.131000,1543
199.131500,2633
199.132000,2898
199.132500,1496
199.133000,2591
199.133500,3085
199.134000,2543
199.134500,2617
199.135000,2724
199.135500,2945
199.136000,1709
199.136500,2924
199.137000,2340
199.137500,2590
199.138000,2736
199.138500,1352
199.139000,0
199.139500,0
199.140000,0
199.140500,0
199.141000,2231
199.141500,2781
199.142000,2703
199.142500,2090
199.143000,0
199.143500,2085
199.144000,2965
199.144500,2211
199.145000,2326
199.145500,506
199.146000,2627
199.146500,1896
199.147000,2822
199.147500,2823
199.148000,2070
199.148500,2712
199.149000,2211
199.149500,671
199.150000,0
199.150500,0
199.151000,2407
199.151500,1057
199.152000,1079
199.152500,2663
199.153000,2631
199.153500,3048
199.154000,1259
199.154500,3018
199.155000,2938
199.155500,0
199.156000,0
199.156500,2102
199.157000,2073
199.157500,1139
199.158000,1962
199.158500,993
199.159000,0
199.159500,0
199.160000,0
199.160500,0
199.161000,2114
199.161500,3181
199.162000,1772
199.162500,2614
199.163000,3158
199.163500,1950
199.164000,2592
199.164500,2930
199.165000,2924
199.165500,830
199.166000,2963
199.166500,2875
199.167000,398
199.167500,2682
199.168000,1711
199.168500,1104
199.169000,918
199.169500,372
199.170000,0
199.170500,1186
199.171000,1692
199.171500,1471
199.172000,0
199.172500,2592
199.173000,2074
199.173500,3120
199.174000,2350
199.174500,2248
199.175000,3035
199.175500,2904
199.176000,2502
199.176500,1945
199.177000,2936
199.177500,2908
199.178000,2893
199.178500,0
199.179000,0
199.179500,0
199.180000,0
199.180500,0
199.181000,0
199.181500,3050
199.182000,1812
199.182500,3154
199.183000,2016
199.183500,2909
199.184000,2814
199.184500,541
199.185000,1790
199.185500,2923
199.186000,2576
199.186500,2829
199.187000,792
199.187500,1482
199.188000,2739
199.188500,1093
199.189000,625
199.189500,0
199.190000,0
199.190500,2325
199.191000,1020
199.191500,153
199.192000,0
199.192500,2958
199.193000,3016
199.193500,3074
199.194000,1870
199.194500,2946
199.195000,2730
199.195500,90
199.196000,340
199.196500,1626
199.197000,1141
199.197500,2198
199.198000,1942
199.198500,2586
199.199000,0
199.199500,0
199.200000,0
199.200500,0
199.201000,2880
199.201500,1511
199.202000,2744
199.202500,2135
199.203000,3124
199.203500,2554
199.204000,1630
199.204500,3024
199.205000,2324
199.205500,2036
199.206000,1706
199.206500,2699
199.207000,2352
199.207500,2112
199.208000,1537
199.208500,695
199.209000,1246
199.209500,409
199.210000,0
199.210500,2964
199.211000,346
199.211500,1104
199.212000,0
199.212500,2712
199.213000,105
199.213500,2732
199.214000,2576
199.214500,1660
199.215000,2307
199.215500,1146
199.216000,2897
199.216500,1600
199.217000,2666
199.217500,1328
199.218000,2797
199.218500,694
199.219000,529
199.219500,0
199.220000,0
199.220500,0
199.221000,2294
199.221500,3064
199.222000,1746
199.222500,2919
199.223000,2373
199.223500,2848
199.224000,2824
199.224500,1661
199.225000,2438
199.225500,2594
199.226000,2958
199.226500,2814
199.227000,1931
199.227500,1471
199.228000,1647
199.228500,0
199.229000,2605
199.229500,1506
199.230000,0
199.230500,2149
199.231000,2578
199.231500,3037
199.232000,357
199.232500,1132
199.233000,2871
199.233500,1366
199.234000,2247
199.234500,1921
199.235000,2310
199.235500,2210
199.236000,1554
199.236500,1972
199.237000,1040
199.237500,2900
199.238000,2487
199.238500,0
199.239000,98
199.239500,0
199.240000,0
199.240500,0
199.241000,1356
199.241500,2574
199.242000,1812
199.242500,2731
199.243000,3070
199.243500,3024
199.244000,293
199.244500,2724
199.245000,2372
199.245500,2860
199.246000,0
199.246500,1460
199.247000,2134
199.247500,2486
199.248000,443
199.248500,2072
199.249000,421
199.249500,1298
199.250000,0
199.250500,2980
199.251000,2093
199.251500,746
199.252000,0
199.252500,1507
199.253000,1769
199.253500,2196
199.254000,2901
199.254500,2908
199.255000,1850
199.255500,2442
199.256000,2462
199.256500,2181
199.257000,2580
199.257500,2664
199.258000,2298
199.258500,2400
199.259000,0
199.259500,0
199.260000,0
199.260500,0
199.261000,3276
199.261500,978
199.262000,2819
199.262500,2974
199.263000,2503
199.263500,1920
199.264000,2947
199.264500,2950
199.265000,2950
199.265500,1202
199.266000,2330
199.266500,1209
199.267000,1168
199.267500,2803
199.268000,784
199.268500,1345
199.269000,643
199.269500,2724
199.270000,0
199.270500,993
199.271000,1534
199.271500,2600
199.272000,2058
199.272500,2809
199.273000,1495
199.273500,2331
199.274000,2886
199.274500,2995
199.275000,2596
199.275500,2603
199.276000,2108
199.276500,997
199.277000,2782
199.277500,0
199.278000,2131
199.278500,1236
199.279000,715
199.279500,0
199.280000,0
199.280500,0
199.281000,3086
199.281500,1999
199.282000,2390
199.282500,3126
199.283000,2818
199.283500,2872
199.284000,2730
199.284500,2068
199.285000,2244
199.285500,2807
199.286000,2771
199.286500,2061
199.287000,2711
199.287500,614
199.288000,1717
199.288500,2546
199.289000,2726
199.289500,645
199.290000,0
199.290500,374
199.291000,1243
199.291500,1874
199.292000,0
199.292500,3060
199.293000,806
199.293500,2594
199.294000,1054
199.294500,2026
199.295000,0
199.295500,1896
199.296000,1955
199.296500,1941
199.297000,1738
199.297500,2885
199.298000,1903
199.298500,2865
199.299000,331
199.299500,0
199.300000,0
199.300500,0
199.301000,2314
199.301500,1574
199.302000,2277
199.302500,3005
199.303000,2480
199.303500,1838
199.304000,3026
199.304500,1850
199.305000,2994
199.305500,239
199.306000,2515
199.306500,599
199.307000,1150
199.307500,1965
199.308000,1998
199.308500,0
199.309000,1387
199.309500,1684
199.310000,0
199.310500,1221
199.311000,0
199.311500,152
199.312000,795
199.312500,1881
199.313000,1381
199.313500,2698
199.314000,2030
199.314500,2641
199.315000,1884
199.315500,790
199.316000,2912
199.316500,1582
199.317000,2626
199.317500,2256
199.318000,2406
199.318500,2838
199.319000,0
199.319500,0
199.320000,0
199.320500,0
199.321000,1941
199.321500,2931
199.322000,3104
199.322500,3196
199.323000,2984
199.323500,2933
199.324000,2974
199.324500,2239
199.325000,2887
199.325500,2586
199.326000,2925
199.326500,2944
199.327000,2819
199.327500,2820
199.328000,0
199.328500,2799
199.329000,0
199.329500,1201
199.330000,0
199.330500,2331
199.331000,1374
199.331500,1369
199.332000,2037
199.332500,3026
199.333000,0
199.333500,2930
199.334000,0
199.334500,3006
199.335000,2954
199.335500,1513
199.336000,2945
199.336500,2728
199.337000,2179
199.337500,2913
199.338000,149
199.338500,2568
199.339000,574
199.339500,0
199.340000,0
199.340500,0
199.341000,2658
199.341500,1955
199.342000,3169
199.342500,3097
199.343000,3040
199.343500,2232
199.344000,1740
199.344500,2984
199.345000,2331
199.345500,2202
199.346000,2403
199.346500,2629
199.347000,2734
199.347500,2385
199.348000,2108
199.348500,2226
199.349000,1274
199.349500,1678
199.350000,0
199.350500,2183
199.351000,2319
199.351500,2247
199.352000,2245
199.352500,2671
199.353000,500
199.353500,3126
199.354000,0
199.354500,1622
199.355000,1299
199.355500,2963
199.356000,2082
199.356500,0
199.357000,2910
199.357500,2822
199.358000,2736
199.358500,2889
199.359000,813
199.359500,0
199.360000,0
199.360500,0
199.361000,2786
199.361500,2879
199.362000,0
199.362500,2353
199.363000,2469
199.363500,1270
199.364000,2267
199.364500,2288
199.365000,2068
199.365500,2795
199.366000,2201
199.366500,2859
199.367000,1267
199.367500,1351
199.368000,1432
199.368500,2683
199.369000,1482
199.369500,1372
199.370000,0
199.370500,2958
199.371000,258
199.371500,2758
199.372000,2557
199.372500,3046
199.373000,1753
199.373500,1386
199.374000,2487
199.374500,2992
199.375000,2432
199.375500,1452
199.376000,2493
199.376500,1555
199.377000,0
199.377500,2276
199.378000,2254
199.378500,2474
199.379000,1565
199.379500,0
199.380000,0
199.380500,1070
199.381000,0
199.381500,3117
199.382000,2889
199.382500,3093
199.383000,3113
199.383500,2470
199.384000,2992
199.384500,2971
199.385000,2070
199.385500,628
199.386000,1998
199.386500,2865
199.387000,1609
199.387500,949
199.388000,809
199.388500,1544
199.389000,1192
199.389500,1690
199.390000,0
199.390500,0
199.391000,1803
199.391500,3047
199.392000,3057
199.392500,2414
199.393000,0
199.393500,2489
199.394000,2949
199.394500,666
199.395000,1632
199.395500,2879
199.396000,1804
199.396500,2192
199.397000,1727
199.397500,2911
199.398000,1184
199.398500,2649
199.399000,394
199.399500,0
199.400000,0
199.400500,0
199.401000,2165
199.401500,1592
199.402000,3130
199.402500,2100
199.403000,2434
199.403500,2730
199.404000,2023
199.404500,253
199.405000,2953
199.405500,2953
199.406000,691
199.406500,2754
199.407000,2023
199.407500,1148
199.408000,2652
199.408500,2455
199.409000,2549
199.409500,1504
199.410000,0
199.410500,10
199.411000,607
199.411500,249
199.412000,0
199.412500,2026
199.413000,643
199.413500,2880
199.414000,2950
199.414500,2233
199.415000,3018
199.415500,1045
199.416000,2795
199.416500,2615
199.417000,0
199.417500,2597
199.418000,2145
199.418500,2710
199.419000,1662
199.419500,0
199.420000,0
199.420500,0
199.421000,2490
199.421500,1411
199.422000,2927
199.422500,2810
199.423000,1883
199.423500,3059
199.424000,2606
199.424500,2142
199.425000,2552
199.425500,2291
199.426000,1808
199.426500,1875
199.427000,1446
199.427500,2876
199.428000,2707
199.428500,2580
199.429000,1262
199.429500,226
199.430000,0
199.430500,2753
199.431000,2220
199.431500,2210
199.432000,0
199.432500,3091
199.433000,1546
199.433500,2846
199.434000,2653
199.434500,2663
199.435000,1434
199.435500,2603
199.436000,2948
199.436500,2582
199.437000,2279
199.437500,0
199.438000,1792
199.438500,2872
199.439000,2793
199.439500,0
199.440000,0
199.440500,0
199.441000,1578
199.441500,2838
199.442000,3148
199.442500,1934
199.443000,2291
199.443500,2366
199.444000,3040
199.444500,965
199.445000,1230
199.445500,802
199.446000,1907
199.446500,2815
199.447000,2876
199.447500,1662
199.448000,1122
199.448500,22
199.449000,1919
199.449500,2797
199.450000,0
199.450500,1532
199.451000,1184
199.451500,1358
199.452000,2842
199.452500,1824
199.453000,2239
199.453500,2192
199.454000,2217
199.454500,2663
199.455000,1868
199.455500,2041
199.456000,2390
199.456500,2926
199.457000,2798
199.457500,2677
199.458000,2757
199.458500,2440
199.459000,0
199.459500,0
199.460000,0
199.460500,0
199.461000,2848
199.461500,1959
199.462000,2262
199.462500,3031
199.463000,3110
199.463500,2912
199.464000,1817
199.464500,3029
199.465000,3009
199.465500,1006
199.466000,2017
199.466500,0
199.467000,2858
199.467500,0
199.468000,1923
199.468500,1573
199.469000,0
199.469500,1776
199.470000,0
199.470500,1709
199.471000,571
199.471500,616
199.472000,2864
199.472500,0
199.473000,0
199.473500,2215
199.474000,2597
199.474500,2862
199.475000,756
199.475500,734
199.476000,2850
199.476500,1562
199.477000,2601
199.477500,1193
199.478000,2826
199.478500,1486
199.479000,2492
199.479500,0
199.480000,0
199.480500,0
199.481000,2645
199.481500,3126
199.482000,3119
199.482500,2559
199.483000,1828
199.483500,3056
199.484000,2514
199.484500,1656
199.485000,2893
199.485500,2046
199.486000,2507
199.486500,1843
199.487000,2068
199.487500,2780
199.488000,2710
199.488500,2818
199.489000,1937
199.489500,1449
199.490000,305
199.490500,1492
199.491000,1828
199.491500,2946
199.492000,3076
199.492500,746
199.493000,1500
199.493500,850
199.494000,0
199.494500,2008
199.495000,2270
199.495500,1842
199.496000,2648
199.496500,2936
199.497000,2262
199.497500,2850
199.498000,510
199.498500,2647
199.499000,2836
199.499500,0
199.500000,0
199.500500,515
199.501000,2706
199.501500,2381
199.502000,2432
199.502500,2982
199.503000,3083
199.503500,3027
199.504000,2674
199.504500,2554
199.505000,1982
199.505500,2377
199.506000,2271
199.506500,2913
199.507000,2832
199.507500,1558
199.508000,1870
199.508500,2780
199.509000,1493
199.509500,1520
199.510000,0
199.510500,412
199.511000,1171
199.511500,0
199.512000,1671
199.512500,688
199.513000,2139
199.513500,2093
199.514000,2536
199.514500,2011
199.515000,3018
199.515500,0
199.516000,2944
199.516500,2907
199.517000,2370
199.517500,1775
199.518000,2943
199.518500,1247
199.519000,1326
199.519500,0
199.520000,0
199.520500,0
199.521000,0
199.521500,3106
199.522000,2200
199.522500,1783
199.523000,0
199.523500,1799
199.524000,2963
199.524500,1200
199.525000,2818
199.525500,1335
199.526000,2982
199.526500,2919
199.527000,1008
199.527500,2844
199.528000,2789
199.528500,1566
199.529000,1104
199.529500,1372
199.530000,0
199.530500,520
199.531000,685
199.531500,426
199.532000,2246
199.532500,2694
199.533000,815
199.533500,1137
199.534000,2506
199.534500,1391
199.535000,2998
199.535500,2214
199.536000,2610
199.536500,1776
199.537000,946
199.537500,2887
199.538000,2630
199.538500,2497
199.539000,2870
199.539500,0
199.540000,0
199.540500,0
199.541000,2914
199.541500,2289
199.542000,3039
199.542500,3050
199.543000,2960
199.543500,1750
199.544000,2470
199.544500,2890
199.545000,2672
199.545500,2786
199.546000,763
199.546500,2891
199.547000,1830
199.547500,2847
199.548000,1787
199.548500,997
199.549000,2420
199.549500,1878
199.550000,0
199.550500,1644
199.551000,2887
199.551500,1603
199.552000,2651
199.552500,711
199.553000,2946
199.553500,2883
199.554000,3034
199.554500,1861
199.555000,2315
199.555500,2458
199.556000,0
199.556500,2238
199.557000,2251
199.557500,2520
199.558000,2910
199.558500,1260
199.559000,2687
199.559500,0
199.560000,0
199.560500,0
199.561000,0
199.561500,3072
199.562000,748
199.562500,2108
199.563000,1966
199.563500,2142
199.564000,2042
199.564500,2811
199.565000,1697
199.565500,1652
199.566000,2981
199.566500,2534
199.567000,1993
199.567500,1774
199.568000,2861
199.568500,2704
199.569000,2703
199.569500,1750
199.570000,0
199.570500,827
199.571000,0
199.571500,1982
199.572000,2442
199.572500,1968
199.573000,1509
199.573500,958
199.574000,2955
199.574500,2886
199.575000,2129
199.575500,1689
199.576000,2562
199.576500,2642
199.577000,2809
199.577500,2846
199.578000,2829
199.578500,2682
199.579000,2832
199.579500,0
199.580000,0
199.580500,0
