# Subject: 
# Trial: mvc-1
# Notes: 
# Muscles: Ch1
# fs=2000 Hz, nch=1, vref=3.3 V
t_s,ch1_code
1435.410000,1794
1435.410500,1794
1435.411000,1794
1435.411500,1788
1435.412000,1794
1435.412500,1788
1435.413000,1801
1435.413500,1789
1435.414000,1793
1435.414500,1795
1435.415000,1790
1435.415500,1798
1435.416000,1792
1435.416500,1788
1435.417000,1790
1435.417500,1793
1435.418000,1794
1435.418500,1787
1435.419000,1802
1435.419500,1798
1435.420000,1786
1435.420500,1791
1435.421000,1790
1435.421500,1793
1435.422000,1791
1435.422500,1791
1435.423000,1782
1435.423500,1786
1435.424000,1784
1435.424500,1783
1435.425000,1799
1435.425500,1796
1435.426000,1802
1435.426500,1791
1435.427000,1786
1435.427500,1793
1435.428000,1785
1435.428500,1799
1435.429000,1791
1435.429500,1792
1435.430000,1789
1435.430500,1788
1435.431000,1792
1435.431500,1793
1435.432000,1798
1435.432500,1791
1435.433000,1792
1435.433500,1792
1435.434000,1786
1435.434500,1794
1435.435000,1800
1435.435500,1790
1435.436000,1794
1435.436500,1788
1435.437000,1783
1435.437500,1789
1435.438000,1771
1435.438500,1791
1435.439000,1794
1435.439500,1790
1435.440000,1790
1435.440500,1778
1435.441000,1791
1435.441500,1794
1435.442000,1789
1435.442500,1794
1435.443000,1797
1435.443500,1801
1435.444000,1810
1435.444500,1793
1435.445000,1794
1435.445500,1802
1435.446000,1792
1435.446500,1796
1435.447000,1791
1435.447500,1788
1435.448000,1781
1435.448500,1785
1435.449000,1777
1435.449500,1775
1435.450000,1783
1435.450500,1792
1435.451000,1798
1435.451500,1793
1435.452000,1790
1435.452500,1783
1435.453000,1792
1435.453500,1772
1435.454000,1781
1435.454500,1794
1435.455000,1791
1435.455500,1793
1435.456000,1785
1435.456500,1792
1435.457000,1782
1435.457500,1791
1435.458000,1789
1435.458500,1794
1435.459000,1781
1435.459500,1774
1435.460000,1789
1435.460500,1793
1435.461000,1801
1435.461500,1796
1435.462000,1795
1435.462500,1785
1435.463000,1818
1435.463500,1796
1435.464000,1790
1435.464500,1797
1435.465000,1794
1435.465500,1791
1435.466000,1791
1435.466500,1787
1435.467000,1785
1435.467500,1782
1435.468000,1788
1435.468500,1790
1435.469000,1795
1435.469500,1784
1435.470000,1790
1435.470500,1795
1435.471000,1792
1435.471500,1790
1435.472000,1793
1435.472500,1803
1435.473000,1791
1435.473500,1791
1435.474000,1790
1435.474500,1789
1435.475000,1790
1435.475500,1791
1435.476000,1804
1435.476500,1779
1435.477000,1791
1435.477500,1789
1435.478000,1790
1435.478500,1780
1435.479000,1797
1435.479500,1794
1435.480000,1786
1435.480500,1787
1435.481000,1794
1435.481500,1789
1435.482000,1808
1435.482500,1786
1435.483000,1786
1435.483500,1787
1435.484000,1790
1435.484500,1782
1435.485000,1789
1435.485500,1797
1435.486000,1788
1435.486500,1786
1435.487000,1783
1435.487500,1788
1435.488000,1786
1435.488500,1787
1435.489000,1791
1435.489500,1793
1435.490000,1797
1435.490500,1790
1435.491000,1797
1435.491500,1774
1435.492000,1787
1435.492500,1794
1435.493000,1790
1435.493500,1790
1435.494000,1794
1435.494500,1780
1435.495000,1799
1435.495500,1790
1435.496000,1795
1435.496500,1793
1435.497000,1788
1435.497500,1795
1435.498000,1797
1435.498500,1798
1435.499000,1791
1435.499500,1790
1435.500000,1793
1435.500500,1791
1435.501000,1790
1435.501500,1791
1435.502000,1791
1435.502500,1797
1435.503000,1787
1435.503500,1789
1435.504000,1781
1435.504500,1797
1435.505000,1783
1435.505500,1793
1435.506000,1794
1435.506500,1782
1435.507000,1790
1435.507500,1785
1435.508000,1791
1435.508500,1795
1435.509000,1786
1435.509500,1783
1435.510000,1784
1435.510500,1797
1435.511000,1794
1435.511500,1787
1435.512000,1787
1435.512500,1793
1435.513000,1787
1435.513500,1791
1435.514000,1796
1435.514500,1792
1435.515000,1789
1435.515500,1802
1435.516000,1787
1435.516500,1777
1435.517000,1790
1435.517500,1788
1435.518000,1789
1435.518500,1790
1435.519000,1793
1435.519500,1782
1435.520000,1789
1435.520500,1788
1435.521000,1786
1435.521500,1793
1435.522000,1785
1435.522500,1794
1435.523000,1794
1435.523500,1789
1435.524000,1786
1435.524500,1784
1435.525000,1787
1435.525500,1792
1435.526000,1788
1435.526500,1790
1435.527000,1791
1435.527500,1790
1435.528000,1794
1435.528500,1782
1435.529000,1787
1435.529500,1796
1435.530000,1790
1435.530500,1798
1435.531000,1794
1435.531500,1793
1435.532000,1791
1435.532500,1788
1435.533000,1789
1435.533500,1794
1435.534000,1785
1435.534500,1792
1435.535000,1804
1435.535500,1802
1435.536000,1791
1435.536500,1798
1435.537000,1788
1435.537500,1785
1435.538000,1793
1435.538500,1788
1435.539000,1795
1435.539500,1788
1435.540000,1786
1435.540500,1795
1435.541000,1797
1435.541500,1790
1435.542000,1790
1435.542500,1788
1435.543000,1782
1435.543500,1787
1435.544000,1784
1435.544500,1780
1435.545000,1799
1435.545500,1788
1435.546000,1785
1435.546500,1793
1435.547000,1794
1435.547500,1790
1435.548000,1791
1435.548500,1797
1435.549000,1787
1435.549500,1797
1435.550000,1785
1435.550500,1793
1435.551000,1813
1435.551500,1791
1435.552000,1789
1435.552500,1792
1435.553000,1794
1435.553500,1789
1435.554000,1790
1435.554500,1790
1435.555000,1787
1435.555500,1794
1435.556000,1787
1435.556500,1792
1435.557000,1806
1435.557500,1791
1435.558000,1793
1435.558500,1785
1435.559000,1792
1435.559500,1788
1435.560000,1788
1435.560500,1785
1435.561000,1788
1435.561500,1786
1435.562000,1791
1435.562500,1798
1435.563000,1788
1435.563500,1796
1435.564000,1791
1435.564500,1791
1435.565000,1785
1435.565500,1795
1435.566000,1794
1435.566500,1791
1435.567000,1791
1435.567500,1791
1435.568000,1787
1435.568500,1785
1435.569000,1787
1435.569500,1792
1435.570000,1797
1435.570500,1787
1435.571000,1792
1435.571500,1791
1435.572000,1790
1435.572500,1796
1435.573000,1789
1435.573500,1777
1435.574000,1783
1435.574500,1789
1435.575000,1790
1435.575500,1793
1435.576000,1795
1435.576500,1786
1435.577000,1790
1435.577500,1788
1435.578000,1788
1435.578500,1790
1435.579000,1796
1435.579500,1776
1435.580000,1790
1435.580500,1791
1435.581000,1794
1435.581500,1792
1435.582000,1794
1435.582500,1788
1435.583000,1791
1435.583500,1790
1435.584000,1787
1435.584500,1784
1435.585000,1783
1435.585500,1783
1435.586000,1791
1435.586500,1789
1435.587000,1783
1435.587500,1792
1435.588000,1787
1435.588500,1787
1435.589000,1809
1435.589500,1791
1435.590000,1799
1435.590500,1794
1435.591000,1793
1435.591500,1793
1435.592000,1791
1435.592500,1800
1435.593000,1793
1435.593500,1794
1435.594000,1786
1435.594500,1793
1435.595000,1799
1435.595500,1786
1435.596000,1791
1435.596500,1787
1435.597000,1787
1435.597500,1792
1435.598000,1796
1435.598500,1779
1435.599000,1784
1435.599500,1791
1435.600000,1797
1435.600500,1797
1435.601000,1792
1435.601500,1788
1435.602000,1787
1435.602500,1790
1435.603000,1786
1435.603500,1789
1435.604000,1781
1435.604500,1790
1435.605000,1796
1435.605500,1785
1435.606000,1794
1435.606500,1786
1435.607000,1792
1435.607500,1791
1435.608000,1776
1435.608500,1787
1435.609000,1794
1435.609500,1785
1435.610000,1798
1435.610500,1805
1435.611000,1793
1435.611500,1795
1435.612000,1796
1435.612500,1791
1435.613000,1797
1435.613500,1796
1435.614000,1797
1435.614500,1785
1435.615000,1791
1435.615500,1792
1435.616000,1792
1435.616500,1791
1435.617000,1799
1435.617500,1797
1435.618000,1794
1435.618500,1791
1435.619000,1796
1435.619500,1792
1435.620000,1796
1435.620500,1791
1435.621000,1792
1435.621500,1794
1435.622000,1790
1435.622500,1792
1435.623000,1790
1435.623500,1813
1435.624000,1797
1435.624500,1787
1435.625000,1789
1435.625500,1788
1435.626000,1783
1435.626500,1785
1435.627000,1787
1435.627500,1788
1435.628000,1788
1435.628500,1780
1435.629000,1790
1435.629500,1799
1435.630000,1791
1435.630500,1789
1435.631000,1791
1435.631500,1794
1435.632000,1793
1435.632500,1796
1435.633000,1776
1435.633500,1785
1435.634000,1791
1435.634500,1787
1435.635000,1785
1435.635500,1787
1435.636000,1791
1435.636500,1789
1435.637000,1787
1435.637500,1788
1435.638000,1790
1435.638500,1790
1435.639000,1777
1435.639500,1792
1435.640000,1794
1435.640500,1791
1435.641000,1788
1435.641500,1786
1435.642000,1788
1435.642500,1827
1435.643000,1788
1435.643500,1787
1435.644000,1784
1435.644500,1788
1435.645000,1787
1435.645500,1792
1435.646000,1797
1435.646500,1782
1435.647000,1793
1435.647500,1794
1435.648000,1788
1435.648500,1783
1435.649000,1792
1435.649500,1791
1435.650000,1804
1435.650500,1787
1435.651000,1794
1435.651500,1787
1435.652000,1790
1435.652500,1788
1435.653000,1791
1435.653500,1788
1435.654000,1789
1435.654500,1787
1435.655000,1796
1435.655500,1788
1435.656000,1792
1435.656500,1788
1435.657000,1785
1435.657500,1786
1435.658000,1802
1435.658500,1789
1435.659000,1790
1435.659500,1790
1435.660000,1787
1435.660500,1794
1435.661000,1796
1435.661500,1790
1435.662000,1797
1435.662500,1786
1435.663000,1784
1435.663500,1784
1435.664000,1793
1435.664500,1783
1435.665000,1795
1435.665500,1785
1435.666000,1788
1435.666500,1785
1435.667000,1792
1435.667500,1772
1435.668000,1787
1435.668500,1788
1435.669000,1798
1435.669500,1793
1435.670000,1805
1435.670500,1786
1435.671000,1808
1435.671500,1789
1435.672000,1792
1435.672500,1791
1435.673000,1786
1435.673500,1778
1435.674000,1794
1435.674500,1789
1435.675000,1791
1435.675500,1791
1435.676000,1793
1435.676500,1786
1435.677000,1785
1435.677500,1794
1435.678000,1792
1435.678500,1791
1435.679000,1786
1435.679500,1788
1435.680000,1798
1435.680500,1792
1435.681000,1791
1435.681500,1790
1435.682000,1788
1435.682500,1790
1435.683000,1774
1435.683500,1789
1435.684000,1793
1435.684500,1783
1435.685000,1793
1435.685500,1795
1435.686000,1794
1435.686500,1794
1435.687000,1790
1435.687500,1789
1435.688000,1802
1435.688500,1797
1435.689000,1785
1435.689500,1800
1435.690000,1796
1435.690500,1788
1435.691000,1784
1435.691500,1781
1435.692000,1783
1435.692500,1778
1435.693000,1790
1435.693500,1790
1435.694000,1789
1435.694500,1784
1435.695000,1793
1435.695500,1787
1435.696000,1790
1435.696500,1794
1435.697000,1788
1435.697500,1784
1435.698000,1793
1435.698500,1787
1435.699000,1787
1435.699500,1795
1435.700000,1792
1435.700500,1782
1435.701000,1800
1435.701500,1790
1435.702000,1791
1435.702500,1787
1435.703000,1781
1435.703500,1788
1435.704000,1788
1435.704500,1785
1435.705000,1794
1435.705500,1796
1435.706000,1787
1435.706500,1790
1435.707000,1793
1435.707500,1791
1435.708000,1796
1435.708500,1790
1435.709000,1794
1435.709500,1798
1435.710000,1794
1435.710500,1795
1435.711000,1792
1435.711500,1792
1435.712000,1789
1435.712500,1794
1435.713000,1787
1435.713500,1791
1435.714000,1804
1435.714500,1788
1435.715000,1798
1435.715500,1794
1435.716000,1789
1435.716500,1782
1435.717000,1784
1435.717500,1799
1435.718000,1791
1435.718500,1796
1435.719000,1794
1435.719500,1792
1435.720000,1794
1435.720500,1790
1435.721000,1789
1435.721500,1791
1435.722000,1788
1435.722500,1790
1435.723000,1796
1435.723500,1804
1435.724000,1793
1435.724500,1792
1435.725000,1788
1435.725500,1783
1435.726000,1787
1435.726500,1785
1435.727000,1781
1435.727500,1788
1435.728000,1787
1435.728500,1787
1435.729000,1791
1435.729500,1795
1435.730000,1788
1435.730500,1789
1435.731000,1794
1435.731500,1790
1435.732000,1790
1435.732500,1791
1435.733000,1782
1435.733500,1788
1435.734000,1791
1435.734500,1792
1435.735000,1788
1435.735500,1790
1435.736000,1791
1435.736500,1796
1435.737000,1792
1435.737500,1795
1435.738000,1789
1435.738500,1794
1435.739000,1790
1435.739500,1791
1435.740000,1797
1435.740500,1790
1435.741000,1784
1435.741500,1790
1435.742000,1789
1435.742500,1789
1435.743000,1786
1435.743500,1787
1435.744000,1788
1435.744500,1786
1435.745000,1785
1435.745500,1786
1435.746000,1793
1435.746500,1787
1435.747000,1785
1435.747500,1790
1435.748000,1781
1435.748500,1778
1435.749000,1788
1435.749500,1792
1435.750000,1798
1435.750500,1793
1435.751000,1794
1435.751500,1793
1435.752000,1789
1435.752500,1794
1435.753000,1793
1435.753500,1789
1435.754000,1793
1435.754500,1800
1435.755000,1794
1435.755500,1789
1435.756000,1788
1435.756500,1794
1435.757000,1789
1435.757500,1785
1435.758000,1788
1435.758500,1789
1435.759000,1791
1435.759500,1794
1435.760000,1796
1435.760500,1793
1435.761000,1792
1435.761500,1786
1435.762000,1791
1435.762500,1789
1435.763000,1792
1435.763500,1788
1435.764000,1790
1435.764500,1790
1435.765000,1800
1435.765500,1791
1435.766000,1789
1435.766500,1789
1435.767000,1797
1435.767500,1790
1435.768000,1794
1435.768500,1789
1435.769000,1791
1435.769500,1785
1435.770000,1769
1435.770500,1790
1435.771000,1789
1435.771500,1791
1435.772000,1787
1435.772500,1788
1435.773000,1791
1435.773500,1787
1435.774000,1791
1435.774500,1790
1435.775000,1786
1435.775500,1796
1435.776000,1799
1435.776500,1785
1435.777000,1794
1435.777500,1787
1435.778000,1780
1435.778500,1786
1435.779000,1792
1435.779500,1797
1435.780000,1787
1435.780500,1794
1435.781000,1787
1435.781500,1790
1435.782000,1787
1435.782500,1789
1435.783000,1780
1435.783500,1787
1435.784000,1789
1435.784500,1792
1435.785000,1798
1435.785500,1796
1435.786000,1789
1435.786500,1786
1435.787000,1797
1435.787500,1796
1435.788000,1783
1435.788500,1794
1435.789000,1792
1435.789500,1795
1435.790000,1795
1435.790500,1793
1435.791000,1793
1435.791500,1790
1435.792000,1796
1435.792500,1778
1435.793000,1789
1435.793500,1789
1435.794000,1784
1435.794500,1792
1435.795000,1790
1435.795500,1792
1435.796000,1782
1435.796500,1791
1435.797000,1792
1435.797500,1792
1435.798000,1797
1435.798500,1796
1435.799000,1787
1435.799500,1792
1435.800000,1795
1435.800500,1787
1435.801000,1785
1435.801500,1786
1435.802000,1795
1435.802500,1785
1435.803000,1793
1435.803500,1795
1435.804000,1792
1435.804500,1787
1435.805000,1792
1435.805500,1799
1435.806000,1797
1435.806500,1787
1435.807000,1790
1435.807500,1795
1435.808000,1786
1435.808500,1789
1435.809000,1795
1435.809500,1785
1435.810000,1790
1435.810500,1787
1435.811000,1789
1435.811500,1781
1435.812000,1790
1435.812500,1793
1435.813000,1785
1435.813500,1794
1435.814000,1785
1435.814500,1788
1435.815000,1798
1435.815500,1787
1435.816000,1793
1435.816500,1780
1435.817000,1783
1435.817500,1797
1435.818000,1787
1435.818500,1791
1435.819000,1793
1435.819500,1792
1435.820000,1798
1435.820500,1797
1435.821000,1791
1435.821500,1793
1435.822000,1794
1435.822500,1794
1435.823000,1794
1435.823500,1781
1435.824000,1790
1435.824500,1786
1435.825000,1789
1435.825500,1784
1435.826000,1791
1435.826500,1789
1435.827000,1805
1435.827500,1797
1435.828000,1796
1435.828500,1791
1435.829000,1800
1435.829500,1792
1435.830000,1793
1435.830500,1818
1435.831000,1786
1435.831500,1785
1435.832000,1779
1435.832500,1781
1435.833000,1784
1435.833500,1781
1435.834000,1782
1435.834500,1785
1435.835000,1792
1435.835500,1790
1435.836000,1790
1435.836500,1785
1435.837000,1789
1435.837500,1791
1435.838000,1795
1435.838500,1792
1435.839000,1796
1435.839500,1788
1435.840000,1798
1435.840500,1782
1435.841000,1783
1435.841500,1784
1435.842000,1792
1435.842500,1791
1435.843000,1792
1435.843500,1794
1435.844000,1792
1435.844500,1791
1435.845000,1795
1435.845500,1784
1435.846000,1779
1435.846500,1790
1435.847000,1786
1435.847500,1784
1435.848000,1784
1435.848500,1792
1435.849000,1785
1435.849500,1771
1435.850000,1794
1435.850500,1790
1435.851000,1796
1435.851500,1794
1435.852000,1800
1435.852500,1792
1435.853000,1802
1435.853500,1802
1435.854000,1793
1435.854500,1786
1435.855000,1791
1435.855500,1791
1435.856000,1791
1435.856500,1780
1435.857000,1778
1435.857500,1782
1435.858000,1784
1435.858500,1794
1435.859000,1796
1435.859500,1793
1435.860000,1807
1435.860500,1792
1435.861000,1790
1435.861500,1792
1435.862000,1792
1435.862500,1782
1435.863000,1793
1435.863500,1787
1435.864000,1779
1435.864500,1786
1435.865000,1788
1435.865500,1784
1435.866000,1797
1435.866500,1787
1435.867000,1787
1435.867500,1781
1435.868000,1779
1435.868500,1777
1435.869000,1775
1435.869500,1784
1435.870000,1785
1435.870500,1783
1435.871000,1791
1435.871500,1794
1435.872000,1792
1435.872500,1795
1435.873000,1791
1435.873500,1789
1435.874000,1794
1435.874500,1788
1435.875000,1792
1435.875500,1787
1435.876000,1802
1435.876500,1798
1435.877000,1790
1435.877500,1795
1435.878000,1791
1435.878500,1794
1435.879000,1791
1435.879500,1789
1435.880000,1794
1435.880500,1789
1435.881000,1799
1435.881500,1787
1435.882000,1787
1435.882500,1785
1435.883000,1795
1435.883500,1788
1435.884000,1787
1435.884500,1786
1435.885000,1802
1435.885500,1797
1435.886000,1792
1435.886500,1791
1435.887000,1785
1435.887500,1781
1435.888000,1774
1435.888500,1786
1435.889000,1778
1435.889500,1781
1435.890000,1785
1435.890500,1782
1435.891000,1780
1435.891500,1784
1435.892000,1798
1435.892500,1792
1435.893000,1791
1435.893500,1797
1435.894000,1792
1435.894500,1793
1435.895000,1808
1435.895500,1773
1435.896000,1806
1435.896500,1805
1435.897000,1810
1435.897500,1804
1435.898000,1790
1435.898500,1801
1435.899000,1801
1435.899500,1803
1435.900000,1808
1435.900500,1810
1435.901000,1801
1435.901500,1793
1435.902000,1783
1435.902500,1765
1435.903000,1767
1435.903500,1775
1435.904000,1790
1435.904500,1793
1435.905000,1806
1435.905500,1814
1435.906000,1802
1435.906500,1796
1435.907000,1812
1435.907500,1809
1435.908000,1792
1435.908500,1792
1435.909000,1779
1435.909500,1778
1435.910000,1769
1435.910500,1772
1435.911000,1770
1435.911500,1769
1435.912000,1763
1435.912500,1772
1435.913000,1776
1435.913500,1788
1435.914000,1786
1435.914500,1786
1435.915000,1790
1435.915500,1798
1435.916000,1792
1435.916500,1788
1435.917000,1781
1435.917500,1779
1435.918000,1779
1435.918500,1773
1435.919000,1774
1435.919500,1783
1435.920000,1775
1435.920500,1789
1435.921000,1794
1435.921500,1784
1435.922000,1787
1435.922500,1791
1435.923000,1789
1435.923500,1790
1435.924000,1789
1435.924500,1789
1435.925000,1798
1435.925500,1819
1435.926000,1843
1435.926500,1838
1435.927000,1837
1435.927500,1830
1435.928000,1823
1435.928500,1827
1435.929000,1819
1435.929500,1804
1435.930000,1799
1435.930500,1780
1435.931000,1780
1435.931500,1749
1435.932000,1732
1435.932500,1739
1435.933000,1763
1435.933500,1789
1435.934000,1796
1435.934500,1798
1435.935000,1797
1435.935500,1796
1435.936000,1788
1435.936500,1789
1435.937000,1798
1435.937500,1799
1435.938000,1797
1435.938500,1799
1435.939000,1803
1435.939500,1814
1435.940000,1825
1435.940500,1849
1435.941000,1838
1435.941500,1833
1435.942000,1829
1435.942500,1819
1435.943000,1812
1435.943500,1826
1435.944000,1803
1435.944500,1790
1435.945000,1772
1435.945500,1748
1435.946000,1718
1435.946500,1726
1435.947000,1716
1435.947500,1732
1435.948000,1744
1435.948500,1759
1435.949000,1763
1435.949500,1777
1435.950000,1787
1435.950500,1787
1435.951000,1783
1435.951500,1776
1435.952000,1776
1435.952500,1781
1435.953000,1789
1435.953500,1790
1435.954000,1828
1435.954500,1837
1435.955000,1846
1435.955500,1840
1435.956000,1825
1435.956500,1817
1435.957000,1799
1435.957500,1771
1435.958000,1758
1435.958500,1746
1435.959000,1739
1435.959500,1734
1435.960000,1750
1435.960500,1763
1435.961000,1771
1435.961500,1789
1435.962000,1810
1435.962500,1819
1435.963000,1815
1435.963500,1820
1435.964000,1819
1435.964500,1817
1435.965000,1828
1435.965500,1825
1435.966000,1831
1435.966500,1806
1435.967000,1762
1435.967500,1735
1435.968000,1726
1435.968500,1755
1435.969000,1771
1435.969500,1793
1435.970000,1840
1435.970500,1865
1435.971000,1877
1435.971500,1888
1435.972000,1891
1435.972500,1886
1435.973000,1856
1435.973500,1838
1435.974000,1829
1435.974500,1813
1435.975000,1816
1435.975500,1788
1435.976000,1769
1435.976500,1734
1435.977000,1701
1435.977500,1676
1435.978000,1668
1435.978500,1692
1435.979000,1709
1435.979500,1735
1435.980000,1749
1435.980500,1751
1435.981000,1766
1435.981500,1781
1435.982000,1784
1435.982500,1799
1435.983000,1800
1435.983500,1796
1435.984000,1802
1435.984500,1816
1435.985000,1830
1435.985500,1848
1435.986000,1874
1435.986500,1869
1435.987000,1869
1435.987500,1877
1435.988000,1866
1435.988500,1865
1435.989000,1837
1435.989500,1792
1435.990000,1754
1435.990500,1730
1435.991000,1732
1435.991500,1752
1435.992000,1746
1435.992500,1750
1435.993000,1742
1435.993500,1755
1435.994000,1775
1435.994500,1784
1435.995000,1799
1435.995500,1799
1435.996000,1793
1435.996500,1774
1435.997000,1758
1435.997500,1760
1435.998000,1760
1435.998500,1790
1435.999000,1801
1435.999500,1788
1436.000000,1777
1436.000500,1753
1436.001000,1729
1436.001500,1758
1436.002000,1779
1436.002500,1799
1436.003000,1813
1436.003500,1827
1436.004000,1826
1436.004500,1815
1436.005000,1802
1436.005500,1794
1436.006000,1786
1436.006500,1778
1436.007000,1750
1436.007500,1762
1436.008000,1758
1436.008500,1818
1436.009000,1893
1436.009500,1932
1436.010000,1946
1436.010500,1951
1436.011000,1953
1436.011500,1940
1436.012000,1910
1436.012500,1884
1436.013000,1852
1436.013500,1792
1436.014000,1737
1436.014500,1712
1436.015000,1680
1436.015500,1627
1436.016000,1621
1436.016500,1630
1436.017000,1660
1436.017500,1688
1436.018000,1713
1436.018500,1705
1436.019000,1711
1436.019500,1728
1436.020000,1749
1436.020500,1775
1436.021000,1790
1436.021500,1789
1436.022000,1802
1436.022500,1801
1436.023000,1812
1436.023500,1825
1436.024000,1813
1436.024500,1798
1436.025000,1762
1436.025500,1733
1436.026000,1715
1436.026500,1760
1436.027000,1797
1436.027500,1821
1436.028000,1829
1436.028500,1837
1436.029000,1830
1436.029500,1818
1436.030000,1842
1436.030500,1848
1436.031000,1849
1436.031500,1825
1436.032000,1791
1436.032500,1746
1436.033000,1724
1436.033500,1721
1436.034000,1732
1436.034500,1737
1436.035000,1741
1436.035500,1745
1436.036000,1754
1436.036500,1788
1436.037000,1850
1436.037500,1901
1436.038000,1906
1436.038500,1896
1436.039000,1886
1436.039500,1870
1436.040000,1865
1436.040500,1837
1436.041000,1803
1436.041500,1770
1436.042000,1745
1436.042500,1702
1436.043000,1726
1436.043500,1736
1436.044000,1739
1436.044500,1763
1436.045000,1792
1436.045500,1847
1436.046000,1894
1436.046500,1903
1436.047000,1899
1436.047500,1872
1436.048000,1832
1436.048500,1820
1436.049000,1784
1436.049500,1779
1436.050000,1774
1436.050500,1764
1436.051000,1760
1436.051500,1786
1436.052000,1811
1436.052500,1836
1436.053000,1838
1436.053500,1853
1436.054000,1829
1436.054500,1797
1436.055000,1766
1436.055500,1747
1436.056000,1708
1436.056500,1667
1436.057000,1638
1436.057500,1643
1436.058000,1678
1436.058500,1693
1436.059000,1716
1436.059500,1739
1436.060000,1756
1436.060500,1766
1436.061000,1803
1436.061500,1828
1436.062000,1865
1436.062500,1880
1436.063000,1864
1436.063500,1808
1436.064000,1782
1436.064500,1777
1436.065000,1813
1436.065500,1842
1436.066000,1858
1436.066500,1857
1436.067000,1832
1436.067500,1814
1436.068000,1781
1436.068500,1764
1436.069000,1725
1436.069500,1720
1436.070000,1728
1436.070500,1722
1436.071000,1723
1436.071500,1704
1436.072000,1724
1436.072500,1738
1436.073000,1745
1436.073500,1743
1436.074000,1717
1436.074500,1712
1436.075000,1714
1436.075500,1727
1436.076000,1769
1436.076500,1815
1436.077000,1860
1436.077500,1940
1436.078000,1980
1436.078500,1961
1436.079000,1924
1436.079500,1909
1436.080000,1905
1436.080500,1888
1436.081000,1871
1436.081500,1846
1436.082000,1794
1436.082500,1732
1436.083000,1640
1436.083500,1620
1436.084000,1643
1436.084500,1691
1436.085000,1742
1436.085500,1764
1436.086000,1749
1436.086500,1728
1436.087000,1710
1436.087500,1686
1436.088000,1669
1436.088500,1703
1436.089000,1783
1436.089500,1896
1436.090000,1969
1436.090500,1990
1436.091000,2023
1436.091500,2010
1436.092000,1959
1436.092500,1891
1436.093000,1832
1436.093500,1762
1436.094000,1706
1436.094500,1678
1436.095000,1673
1436.095500,1689
1436.096000,1714
1436.096500,1699
1436.097000,1699
1436.097500,1689
1436.098000,1654
1436.098500,1634
1436.099000,1614
1436.099500,1591
1436.100000,1617
1436.100500,1654
1436.101000,1674
1436.101500,1700
1436.102000,1716
1436.102500,1764
1436.103000,1799
1436.103500,1809
1436.104000,1842
1436.104500,1877
1436.105000,1895
1436.105500,1906
1436.106000,1897
1436.106500,1888
1436.107000,1871
1436.107500,1840
1436.108000,1878
1436.108500,1904
1436.109000,1889
1436.109500,1890
1436.110000,1912
1436.110500,1920
1436.111000,1903
1436.111500,1871
1436.112000,1842
1436.112500,1790
1436.113000,1718
1436.113500,1700
1436.114000,1698
1436.114500,1735
1436.115000,1818
1436.115500,1871
1436.116000,1879
1436.116500,1851
1436.117000,1800
1436.117500,1802
1436.118000,1775
1436.118500,1718
1436.119000,1669
1436.119500,1638
1436.120000,1618
1436.120500,1633
1436.121000,1642
1436.121500,1677
1436.122000,1749
1436.122500,1789
1436.123000,1842
1436.123500,1867
1436.124000,1876
1436.124500,1870
1436.125000,1868
1436.125500,1846
1436.126000,1815
1436.126500,1735
1436.127000,1660
1436.127500,1618
1436.128000,1630
1436.128500,1697
1436.129000,1736
1436.129500,1748
1436.130000,1764
1436.130500,1790
1436.131000,1845
1436.131500,1917
1436.132000,1968
1436.132500,1956
1436.133000,1976
1436.133500,1993
1436.134000,1977
1436.134500,1921
1436.135000,1886
1436.135500,1819
1436.136000,1784
1436.136500,1742
1436.137000,1698
1436.137500,1664
1436.138000,1634
1436.138500,1692
1436.139000,1731
1436.139500,1739
1436.140000,1744
1436.140500,1756
1436.141000,1793
1436.141500,1844
1436.142000,1843
1436.142500,1792
1436.143000,1788
1436.143500,1848
1436.144000,1921
1436.144500,1944
1436.145000,1907
1436.145500,1848
1436.146000,1820
1436.146500,1797
1436.147000,1790
1436.147500,1801
1436.148000,1751
1436.148500,1686
1436.149000,1651
1436.149500,1632
1436.150000,1656
1436.150500,1677
1436.151000,1700
1436.151500,1692
1436.152000,1714
1436.152500,1756
1436.153000,1803
1436.153500,1820
1436.154000,1830
1436.154500,1863
1436.155000,1887
1436.155500,1892
1436.156000,1861
1436.156500,1821
1436.157000,1779
1436.157500,1740
1436.158000,1721
1436.158500,1720
1436.159000,1696
1436.159500,1668
1436.160000,1707
1436.160500,1786
1436.161000,1889
1436.161500,1895
1436.162000,1927
1436.162500,1942
1436.163000,1940
1436.163500,1901
1436.164000,1846
1436.164500,1761
1436.165000,1699
1436.165500,1706
1436.166000,1763
1436.166500,1832
1436.167000,1897
1436.167500,1915
1436.168000,1905
1436.168500,1855
1436.169000,1746
1436.169500,1634
1436.170000,1618
1436.170500,1679
1436.171000,1720
1436.171500,1752
1436.172000,1767
1436.172500,1761
1436.173000,1742
1436.173500,1751
1436.174000,1783
1436.174500,1792
1436.175000,1805
1436.175500,1829
1436.176000,1845
1436.176500,1901
1436.177000,2030
1436.177500,2081
1436.178000,2090
1436.178500,2078
1436.179000,2033
1436.179500,1946
1436.180000,1781
1436.180500,1602
1436.181000,1457
1436.181500,1461
1436.182000,1583
1436.182500,1680
1436.183000,1769
1436.183500,1808
1436.184000,1782
1436.184500,1738
1436.185000,1709
1436.185500,1702
1436.186000,1702
1436.186500,1706
1436.187000,1679
1436.187500,1680
1436.188000,1692
1436.188500,1717
1436.189000,1711
1436.189500,1720
1436.190000,1721
1436.190500,1738
1436.191000,1784
1436.191500,1834
1436.192000,1841
1436.192500,1867
1436.193000,1895
1436.193500,1882
1436.194000,1889
1436.194500,1933
1436.195000,2012
1436.195500,2095
1436.196000,2136
1436.196500,2149
1436.197000,2120
1436.197500,2011
1436.198000,1873
1436.198500,1746
1436.199000,1672
1436.199500,1583
1436.200000,1576
1436.200500,1633
1436.201000,1652
1436.201500,1643
1436.202000,1618
1436.202500,1598
1436.203000,1619
1436.203500,1682
1436.204000,1736
1436.204500,1752
1436.205000,1794
1436.205500,1867
1436.206000,1905
1436.206500,1912
1436.207000,1895
1436.207500,1898
1436.208000,1895
1436.208500,1834
1436.209000,1747
1436.209500,1700
1436.210000,1658
1436.210500,1626
1436.211000,1646
1436.211500,1672
1436.212000,1674
1436.212500,1686
1436.213000,1706
1436.213500,1728
1436.214000,1774
1436.214500,1829
1436.215000,1852
1436.215500,1876
1436.216000,1919
1436.216500,1971
1436.217000,2015
1436.217500,2018
1436.218000,1963
1436.218500,1923
1436.219000,1867
1436.219500,1773
1436.220000,1706
1436.220500,1640
1436.221000,1643
1436.221500,1685
1436.222000,1684
1436.222500,1699
1436.223000,1714
1436.223500,1738
1436.224000,1769
1436.224500,1797
1436.225000,1860
1436.225500,1898
1436.226000,1930
1436.226500,1907
1436.227000,1856
1436.227500,1835
1436.228000,1808
1436.228500,1796
1436.229000,1779
1436.229500,1747
1436.230000,1747
1436.230500,1789
1436.231000,1851
1436.231500,1890
1436.232000,1945
1436.232500,1973
1436.233000,1926
1436.233500,1867
1436.234000,1785
1436.234500,1709
1436.235000,1684
1436.235500,1633
1436.236000,1636
1436.236500,1687
1436.237000,1758
1436.237500,1798
1436.238000,1802
1436.238500,1771
1436.239000,1749
1436.239500,1748
1436.240000,1722
1436.240500,1663
1436.241000,1630
1436.241500,1631
1436.242000,1695
1436.242500,1792
1436.243000,1858
1436.243500,1891
1436.244000,1937
1436.244500,1930
1436.245000,1857
1436.245500,1749
1436.246000,1711
1436.246500,1696
1436.247000,1679
1436.247500,1756
1436.248000,1850
1436.248500,1894
1436.249000,1873
1436.249500,1887
1436.250000,1890
1436.250500,1923
1436.251000,1961
1436.251500,1964
1436.252000,1909
1436.252500,1810
1436.253000,1754
1436.253500,1711
1436.254000,1703
1436.254500,1691
1436.255000,1725
1436.255500,1738
1436.256000,1727
1436.256500,1781
1436.257000,1820
1436.257500,1823
1436.258000,1828
1436.258500,1852
1436.259000,1836
1436.259500,1814
1436.260000,1771
1436.260500,1732
1436.261000,1691
1436.261500,1714
1436.262000,1780
1436.262500,1811
1436.263000,1796
1436.263500,1788
1436.264000,1733
1436.264500,1700
1436.265000,1759
1436.265500,1825
1436.266000,1833
1436.266500,1810
1436.267000,1779
1436.267500,1727
1436.268000,1695
1436.268500,1664
1436.269000,1651
1436.269500,1662
1436.270000,1673
1436.270500,1758
1436.271000,1820
1436.271500,1836
1436.272000,1868
1436.272500,1903
1436.273000,1915
1436.273500,1897
1436.274000,1819
1436.274500,1774
1436.275000,1775
1436.275500,1783
1436.276000,1774
1436.276500,1784
1436.277000,1782
1436.277500,1838
1436.278000,1926
1436.278500,1958
1436.279000,1951
1436.279500,1933
1436.280000,1902
1436.280500,1897
1436.281000,1861
1436.281500,1804
1436.282000,1768
1436.282500,1760
1436.283000,1708
1436.283500,1655
1436.284000,1666
1436.284500,1767
1436.285000,1866
1436.285500,1897
1436.286000,1859
1436.286500,1690
1436.287000,1544
1436.287500,1492
1436.288000,1556
1436.288500,1698
1436.289000,1814
1436.289500,1800
1436.290000,1775
1436.290500,1766
1436.291000,1789
1436.291500,1806
1436.292000,1827
1436.292500,1848
1436.293000,1862
1436.293500,1863
1436.294000,1868
1436.294500,1869
1436.295000,1859
1436.295500,1793
1436.296000,1755
1436.296500,1764
1436.297000,1778
1436.297500,1759
1436.298000,1745
1436.298500,1711
1436.299000,1718
1436.299500,1721
1436.300000,1744
1436.300500,1785
1436.301000,1842
1436.301500,1860
1436.302000,1929
1436.302500,1980
1436.303000,1996
1436.303500,1947
1436.304000,1892
1436.304500,1798
1436.305000,1694
1436.305500,1625
1436.306000,1626
1436.306500,1680
1436.307000,1732
1436.307500,1762
1436.308000,1757
1436.308500,1795
1436.309000,1831
1436.309500,1881
1436.310000,1924
1436.310500,1906
1436.311000,1883
1436.311500,1866
1436.312000,1834
1436.312500,1787
1436.313000,1706
1436.313500,1663
1436.314000,1671
1436.314500,1682
1436.315000,1761
1436.315500,1809
1436.316000,1790
1436.316500,1809
1436.317000,1845
1436.317500,1840
1436.318000,1815
1436.318500,1799
1436.319000,1814
1436.319500,1795
1436.320000,1748
1436.320500,1702
1436.321000,1689
1436.321500,1731
1436.322000,1802
1436.322500,1844
1436.323000,1858
1436.323500,1832
1436.324000,1775
1436.324500,1723
1436.325000,1667
1436.325500,1646
1436.326000,1667
1436.326500,1682
1436.327000,1713
1436.327500,1748
1436.328000,1778
1436.328500,1773
1436.329000,1761
1436.329500,1768
1436.330000,1800
1436.330500,1835
1436.331000,1826
1436.331500,1802
1436.332000,1819
1436.332500,1830
1436.333000,1848
1436.333500,1854
1436.334000,1850
1436.334500,1821
1436.335000,1790
1436.335500,1808
1436.336000,1873
1436.336500,1970
1436.337000,2030
1436.337500,2014
1436.338000,1951
1436.338500,1839
1436.339000,1772
1436.339500,1769
1436.340000,1783
1436.340500,1813
1436.341000,1808
1436.341500,1787
1436.342000,1784
1436.342500,1799
1436.343000,1816
1436.343500,1776
1436.344000,1703
1436.344500,1695
1436.345000,1753
1436.345500,1793
1436.346000,1785
1436.346500,1761
1436.347000,1714
1436.347500,1676
1436.348000,1649
1436.348500,1656
1436.349000,1718
1436.349500,1765
1436.350000,1786
1436.350500,1756
1436.351000,1735
1436.351500,1752
1436.352000,1775
1436.352500,1765
1436.353000,1743
1436.353500,1761
1436.354000,1809
1436.354500,1821
1436.355000,1804
1436.355500,1819
1436.356000,1847
1436.356500,1830
1436.357000,1760
1436.357500,1723
1436.358000,1763
1436.358500,1790
1436.359000,1770
1436.359500,1821
1436.360000,1937
1436.360500,2021
1436.361000,2019
1436.361500,1956
1436.362000,1925
1436.362500,1867
1436.363000,1815
1436.363500,1765
1436.364000,1712
1436.364500,1700
1436.365000,1740
1436.365500,1773
1436.366000,1733
1436.366500,1671
1436.367000,1732
1436.367500,1819
1436.368000,1884
1436.368500,1885
1436.369000,1836
1436.369500,1741
1436.370000,1638
1436.370500,1593
1436.371000,1629
1436.371500,1706
1436.372000,1745
1436.372500,1771
1436.373000,1811
1436.373500,1831
1436.374000,1818
1436.374500,1796
1436.375000,1788
1436.375500,1772
1436.376000,1745
1436.376500,1728
1436.377000,1743
1436.377500,1801
1436.378000,1816
1436.378500,1803
1436.379000,1793
1436.379500,1786
1436.380000,1788
1436.380500,1827
1436.381000,1887
1436.381500,1947
1436.382000,1973
1436.382500,1957
1436.383000,1931
1436.383500,1843
1436.384000,1793
1436.384500,1810
1436.385000,1823
1436.385500,1789
1436.386000,1741
1436.386500,1709
1436.387000,1650
1436.387500,1575
1436.388000,1564
1436.388500,1647
1436.389000,1726
1436.389500,1767
1436.390000,1814
1436.390500,1845
1436.391000,1826
1436.391500,1741
1436.392000,1671
1436.392500,1725
1436.393000,1799
1436.393500,1851
1436.394000,1856
1436.394500,1863
1436.395000,1892
1436.395500,1894
1436.396000,1870
1436.396500,1858
1436.397000,1864
1436.397500,1795
1436.398000,1712
1436.398500,1696
1436.399000,1793
1436.399500,1892
1436.400000,1918
1436.400500,1893
1436.401000,1839
1436.401500,1763
1436.402000,1724
1436.402500,1717
1436.403000,1739
1436.403500,1793
1436.404000,1808
1436.404500,1817
1436.405000,1789
1436.405500,1794
1436.406000,1814
1436.406500,1809
1436.407000,1775
1436.407500,1733
1436.408000,1692
1436.408500,1679
1436.409000,1698
1436.409500,1725
1436.410000,1747
1436.410500,1758
1436.411000,1753
1436.411500,1746
1436.412000,1768
1436.412500,1767
1436.413000,1776
1436.413500,1796
1436.414000,1824
1436.414500,1837
1436.415000,1846
1436.415500,1871
1436.416000,1894
1436.416500,1888
1436.417000,1804
1436.417500,1737
1436.418000,1716
1436.418500,1768
1436.419000,1826
1436.419500,1874
1436.420000,1894
1436.420500,1883
1436.421000,1815
1436.421500,1757
1436.422000,1770
1436.422500,1811
1436.423000,1864
1436.423500,1844
1436.424000,1801
1436.424500,1799
1436.425000,1847
1436.425500,1864
1436.426000,1842
1436.426500,1766
1436.427000,1689
1436.427500,1652
1436.428000,1757
1436.428500,1858
1436.429000,1883
1436.429500,1890
1436.430000,1855
1436.430500,1750
1436.431000,1559
1436.431500,1429
1436.432000,1577
1436.432500,1752
1436.433000,1843
1436.433500,1867
1436.434000,1848
1436.434500,1829
1436.435000,1807
1436.435500,1806
1436.436000,1815
1436.436500,1818
1436.437000,1822
1436.437500,1851
1436.438000,1842
1436.438500,1755
1436.439000,1712
1436.439500,1736
1436.440000,1780
1436.440500,1823
1436.441000,1882
1436.441500,1932
1436.442000,1974
1436.442500,1967
1436.443000,1923
1436.443500,1816
1436.444000,1664
1436.444500,1619
1436.445000,1657
1436.445500,1712
1436.446000,1726
1436.446500,1685
1436.447000,1691
1436.447500,1694
1436.448000,1684
1436.448500,1692
1436.449000,1723
1436.449500,1768
1436.450000,1867
1436.450500,1904
1436.451000,1894
1436.451500,1886
1436.452000,1906
1436.452500,1925
1436.453000,1903
1436.453500,1857
1436.454000,1817
1436.454500,1753
1436.455000,1696
1436.455500,1699
1436.456000,1744
1436.456500,1766
1436.457000,1782
1436.457500,1760
1436.458000,1689
1436.458500,1684
1436.459000,1734
1436.459500,1729
1436.460000,1766
1436.460500,1788
1436.461000,1801
1436.461500,1778
1436.462000,1745
1436.462500,1712
1436.463000,1737
1436.463500,1796
1436.464000,1875
1436.464500,1938
1436.465000,1971
1436.465500,1970
1436.466000,1961
1436.466500,1934
1436.467000,1867
1436.467500,1776
1436.468000,1747
1436.468500,1779
1436.469000,1816
1436.469500,1785
1436.470000,1774
1436.470500,1757
1436.471000,1715
1436.471500,1717
1436.472000,1740
1436.472500,1752
1436.473000,1768
1436.473500,1783
1436.474000,1771
1436.474500,1734
1436.475000,1733
1436.475500,1764
1436.476000,1772
1436.476500,1780
1436.477000,1748
1436.477500,1694
1436.478000,1651
1436.478500,1691
1436.479000,1742
1436.479500,1756
1436.480000,1828
1436.480500,1966
1436.481000,2072
1436.481500,2069
1436.482000,1995
1436.482500,1896
1436.483000,1777
1436.483500,1684
1436.484000,1666
1436.484500,1813
1436.485000,1867
1436.485500,1829
1436.486000,1809
1436.486500,1809
1436.487000,1764
1436.487500,1740
1436.488000,1760
1436.488500,1810
1436.489000,1849
1436.489500,1831
1436.490000,1795
1436.490500,1749
1436.491000,1716
1436.491500,1710
1436.492000,1732
1436.492500,1746
1436.493000,1718
1436.493500,1697
1436.494000,1657
1436.494500,1681
1436.495000,1724
1436.495500,1738
1436.496000,1727
1436.496500,1665
1436.497000,1690
1436.497500,1738
1436.498000,1805
1436.498500,1878
1436.499000,1930
1436.499500,1903
1436.500000,1802
1436.500500,1721
1436.501000,1753
1436.501500,1792
1436.502000,1842
1436.502500,1891
1436.503000,1936
1436.503500,1967
1436.504000,1932
1436.504500,1886
1436.505000,1857
1436.505500,1844
1436.506000,1828
1436.506500,1782
1436.507000,1726
1436.507500,1708
1436.508000,1675
1436.508500,1649
1436.509000,1683
1436.509500,1694
1436.510000,1737
1436.510500,1779
1436.511000,1762
1436.511500,1738
1436.512000,1726
1436.512500,1746
1436.513000,1763
1436.513500,1759
1436.514000,1745
1436.514500,1741
1436.515000,1763
1436.515500,1839
1436.516000,1937
1436.516500,1999
1436.517000,2062
1436.517500,2021
1436.518000,2005
1436.518500,1989
1436.519000,1959
1436.519500,1882
1436.520000,1791
1436.520500,1686
1436.521000,1609
1436.521500,1613
1436.522000,1625
1436.522500,1633
1436.523000,1653
1436.523500,1688
1436.524000,1732
1436.524500,1754
1436.525000,1748
1436.525500,1729
1436.526000,1739
1436.526500,1740
1436.527000,1760
1436.527500,1772
1436.528000,1796
1436.528500,1828
1436.529000,1839
1436.529500,1841
1436.530000,1835
1436.530500,1830
1436.531000,1806
1436.531500,1761
1436.532000,1739
1436.532500,1765
1436.533000,1838
1436.533500,1867
1436.534000,1831
1436.534500,1809
1436.535000,1782
1436.535500,1728
1436.536000,1692
1436.536500,1704
1436.537000,1701
1436.537500,1705
1436.538000,1752
1436.538500,1793
1436.539000,1832
1436.539500,1859
1436.540000,1892
1436.540500,1894
1436.541000,1896
1436.541500,1904
1436.542000,1911
1436.542500,1928
1436.543000,1947
1436.543500,1950
1436.544000,1835
1436.544500,1720
1436.545000,1654
1436.545500,1604
1436.546000,1621
1436.546500,1673
1436.547000,1714
1436.547500,1746
1436.548000,1758
1436.548500,1760
1436.549000,1780
1436.549500,1829
1436.550000,1880
1436.550500,1880
1436.551000,1871
1436.551500,1858
1436.552000,1876
1436.552500,1855
1436.553000,1810
1436.553500,1728
1436.554000,1711
1436.554500,1758
1436.555000,1811
1436.555500,1792
1436.556000,1745
1436.556500,1702
1436.557000,1689
1436.557500,1689
1436.558000,1684
1436.558500,1709
1436.559000,1750
1436.559500,1775
1436.560000,1781
1436.560500,1795
1436.561000,1823
1436.561500,1879
1436.562000,1912
1436.562500,1914
1436.563000,1857
1436.563500,1796
1436.564000,1762
1436.564500,1772
1436.565000,1811
1436.565500,1818
1436.566000,1802
1436.566500,1858
1436.567000,1904
1436.567500,1874
1436.568000,1798
1436.568500,1749
1436.569000,1797
1436.569500,1777
1436.570000,1736
1436.570500,1700
1436.571000,1727
1436.571500,1736
1436.572000,1735
1436.572500,1763
1436.573000,1781
1436.573500,1794
1436.574000,1802
1436.574500,1797
1436.575000,1781
1436.575500,1814
1436.576000,1822
1436.576500,1826
1436.577000,1857
1436.577500,1827
1436.578000,1740
1436.578500,1769
1436.579000,1889
1436.579500,1954
1436.580000,1957
1436.580500,1889
1436.581000,1824
1436.581500,1772
1436.582000,1751
1436.582500,1701
1436.583000,1708
1436.583500,1724
1436.584000,1719
1436.584500,1778
1436.585000,1820
1436.585500,1836
1436.586000,1835
1436.586500,1821
1436.587000,1804
1436.587500,1771
1436.588000,1691
1436.588500,1667
1436.589000,1695
1436.589500,1719
1436.590000,1735
1436.590500,1742
1436.591000,1753
1436.591500,1775
1436.592000,1790
1436.592500,1803
1436.593000,1815
1436.593500,1843
1436.594000,1840
1436.594500,1822
1436.595000,1796
1436.595500,1767
1436.596000,1747
1436.596500,1768
1436.597000,1807
1436.597500,1835
1436.598000,1848
1436.598500,1858
1436.599000,1855
1436.599500,1842
1436.600000,1808
1436.600500,1770
1436.601000,1754
1436.601500,1733
1436.602000,1738
1436.602500,1756
1436.603000,1813
1436.603500,1826
1436.604000,1909
1436.604500,1968
1436.605000,2009
1436.605500,2022
1436.606000,1975
1436.606500,1753
1436.607000,1534
1436.607500,1452
1436.608000,1466
1436.608500,1588
1436.609000,1691
1436.609500,1756
1436.610000,1806
1436.610500,1834
1436.611000,1848
1436.611500,1845
1436.612000,1842
1436.612500,1812
1436.613000,1746
1436.613500,1710
1436.614000,1725
1436.614500,1741
1436.615000,1779
1436.615500,1801
1436.616000,1808
1436.616500,1798
1436.617000,1791
1436.617500,1859
1436.618000,1883
1436.618500,1876
1436.619000,1908
1436.619500,1918
1436.620000,1915
1436.620500,1958
1436.621000,1983
1436.621500,1959
1436.622000,1884
1436.622500,1809
1436.623000,1753
1436.623500,1723
1436.624000,1690
1436.624500,1628
1436.625000,1595
1436.625500,1646
1436.626000,1726
1436.626500,1771
1436.627000,1774
1436.627500,1718
1436.628000,1664
1436.628500,1674
1436.629000,1778
1436.629500,1822
1436.630000,1834
1436.630500,1811
1436.631000,1798
1436.631500,1781
1436.632000,1762
1436.632500,1748
1436.633000,1770
1436.633500,1764
1436.634000,1769
1436.634500,1787
1436.635000,1770
1436.635500,1752
1436.636000,1743
1436.636500,1754
1436.637000,1812
1436.637500,1876
1436.638000,1942
1436.638500,1985
1436.639000,1939
1436.639500,1882
1436.640000,1824
1436.640500,1780
1436.641000,1768
1436.641500,1763
1436.642000,1828
1436.642500,1880
1436.643000,1898
1436.643500,1853
1436.644000,1781
1436.644500,1733
1436.645000,1701
1436.645500,1703
1436.646000,1743
1436.646500,1783
1436.647000,1801
1436.647500,1778
1436.648000,1750
1436.648500,1782
1436.649000,1753
1436.649500,1778
1436.650000,1780
1436.650500,1802
1436.651000,1838
1436.651500,1891
1436.652000,1883
1436.652500,1831
1436.653000,1758
1436.653500,1680
1436.654000,1679
1436.654500,1723
1436.655000,1790
1436.655500,1817
1436.656000,1846
1436.656500,1848
1436.657000,1834
1436.657500,1806
1436.658000,1764
1436.658500,1773
1436.659000,1766
1436.659500,1751
1436.660000,1748
1436.660500,1762
1436.661000,1752
1436.661500,1778
1436.662000,1772
1436.662500,1761
1436.663000,1754
1436.663500,1756
1436.664000,1766
1436.664500,1772
1436.665000,1786
1436.665500,1785
1436.666000,1757
1436.666500,1751
1436.667000,1755
1436.667500,1746
1436.668000,1750
1436.668500,1781
1436.669000,1828
1436.669500,1832
1436.670000,1826
1436.670500,1830
1436.671000,1821
1436.671500,1842
1436.672000,1857
1436.672500,1870
1436.673000,1886
1436.673500,1894
1436.674000,1895
1436.674500,1920
1436.675000,1968
1436.675500,1940
1436.676000,1883
1436.676500,1804
1436.677000,1680
1436.677500,1593
1436.678000,1592
1436.678500,1654
1436.679000,1716
1436.679500,1756
1436.680000,1771
1436.680500,1789
1436.681000,1779
1436.681500,1725
1436.682000,1668
1436.682500,1638
1436.683000,1683
1436.683500,1782
1436.684000,1830
1436.684500,1813
1436.685000,1820
1436.685500,1812
1436.686000,1858
1436.686500,1858
1436.687000,1861
1436.687500,1860
1436.688000,1854
1436.688500,1831
1436.689000,1798
1436.689500,1795
1436.690000,1806
1436.690500,1809
1436.691000,1813
1436.691500,1821
1436.692000,1817
1436.692500,1798
1436.693000,1786
1436.693500,1792
1436.694000,1762
1436.694500,1733
1436.695000,1745
1436.695500,1776
1436.696000,1854
1436.696500,1893
1436.697000,1855
1436.697500,1806
1436.698000,1772
1436.698500,1742
1436.699000,1747
1436.699500,1755
1436.700000,1790
1436.700500,1814
1436.701000,1844
1436.701500,1863
1436.702000,1878
1436.702500,1824
1436.703000,1797
1436.703500,1814
1436.704000,1797
1436.704500,1760
1436.705000,1746
1436.705500,1736
1436.706000,1750
1436.706500,1777
1436.707000,1781
1436.707500,1771
1436.708000,1732
1436.708500,1724
1436.709000,1757
1436.709500,1796
1436.710000,1812
1436.710500,1800
1436.711000,1793
1436.711500,1763
1436.712000,1756
1436.712500,1760
1436.713000,1737
1436.713500,1719
1436.714000,1723
1436.714500,1724
1436.715000,1733
1436.715500,1746
1436.716000,1744
1436.716500,1780
1436.717000,1873
1436.717500,1927
1436.718000,1920
1436.718500,1906
1436.719000,1863
1436.719500,1801
1436.720000,1786
1436.720500,1828
1436.721000,1869
1436.721500,1888
1436.722000,1870
1436.722500,1782
1436.723000,1663
1436.723500,1587
1436.724000,1595
1436.724500,1652
1436.725000,1723
1436.725500,1815
1436.726000,1874
1436.726500,1866
1436.727000,1838
1436.727500,1807
1436.728000,1785
1436.728500,1785
1436.729000,1775
1436.729500,1755
1436.730000,1732
1436.730500,1739
1436.731000,1752
1436.731500,1758
1436.732000,1792
1436.732500,1846
1436.733000,1888
1436.733500,1890
1436.734000,1933
1436.734500,2007
1436.735000,2020
1436.735500,1997
1436.736000,2001
1436.736500,1935
1436.737000,1837
1436.737500,1723
1436.738000,1651
1436.738500,1607
1436.739000,1580
1436.739500,1622
1436.740000,1703
1436.740500,1744
1436.741000,1774
1436.741500,1783
1436.742000,1769
1436.742500,1732
1436.743000,1719
1436.743500,1736
1436.744000,1746
1436.744500,1760
1436.745000,1764
1436.745500,1743
1436.746000,1712
1436.746500,1725
1436.747000,1739
1436.747500,1753
1436.748000,1745
1436.748500,1740
1436.749000,1769
1436.749500,1806
1436.750000,1857
1436.750500,1898
1436.751000,1912
1436.751500,1902
1436.752000,1895
1436.752500,1930
1436.753000,1925
1436.753500,1938
1436.754000,1963
1436.754500,1926
1436.755000,1819
1436.755500,1723
1436.756000,1698
1436.756500,1693
1436.757000,1731
1436.757500,1779
1436.758000,1820
1436.758500,1824
1436.759000,1807
1436.759500,1802
1436.760000,1789
1436.760500,1764
1436.761000,1747
1436.761500,1693
1436.762000,1646
1436.762500,1698
1436.763000,1722
1436.763500,1706
1436.764000,1677
1436.764500,1741
1436.765000,1831
1436.765500,1882
1436.766000,1898
1436.766500,1909
1436.767000,1896
1436.767500,1789
1436.768000,1693
1436.768500,1684
1436.769000,1762
1436.769500,1827
1436.770000,1828
1436.770500,1799
1436.771000,1808
1436.771500,1859
1436.772000,1887
1436.772500,1875
1436.773000,1838
1436.773500,1809
1436.774000,1765
1436.774500,1737
1436.775000,1729
1436.775500,1747
1436.776000,1765
1436.776500,1760
1436.777000,1733
1436.777500,1734
1436.778000,1781
1436.778500,1808
1436.779000,1815
1436.779500,1801
1436.780000,1774
1436.780500,1731
1436.781000,1650
1436.781500,1675
1436.782000,1736
1436.782500,1826
1436.783000,1888
1436.783500,1905
1436.784000,1878
1436.784500,1836
1436.785000,1817
1436.785500,1758
1436.786000,1735
1436.786500,1756
1436.787000,1799
1436.787500,1802
1436.788000,1782
1436.788500,1711
1436.789000,1654
1436.789500,1638
1436.790000,1709
1436.790500,1781
1436.791000,1828
1436.791500,1890
1436.792000,1936
1436.792500,1944
1436.793000,1929
1436.793500,1880
1436.794000,1829
1436.794500,1776
1436.795000,1777
1436.795500,1820
1436.796000,1875
1436.796500,1927
1436.797000,1925
1436.797500,1889
1436.798000,1842
1436.798500,1770
1436.799000,1676
1436.799500,1644
1436.800000,1679
1436.800500,1731
1436.801000,1716
1436.801500,1695
1436.802000,1687
1436.802500,1691
1436.803000,1692
1436.803500,1748
1436.804000,1755
1436.804500,1794
1436.805000,1823
1436.805500,1886
1436.806000,1937
1436.806500,1933
1436.807000,1882
1436.807500,1829
1436.808000,1738
1436.808500,1676
1436.809000,1748
1436.809500,1810
1436.810000,1794
1436.810500,1769
1436.811000,1761
1436.811500,1745
1436.812000,1730
1436.812500,1725
1436.813000,1728
1436.813500,1727
1436.814000,1764
1436.814500,1791
1436.815000,1768
1436.815500,1754
1436.816000,1778
1436.816500,1803
1436.817000,1937
1436.817500,2049
1436.818000,2089
1436.818500,2071
1436.819000,2033
1436.819500,1960
1436.820000,1824
1436.820500,1658
1436.821000,1590
1436.821500,1594
1436.822000,1615
1436.822500,1668
1436.823000,1695
1436.823500,1662
1436.824000,1663
1436.824500,1717
1436.825000,1761
1436.825500,1751
1436.826000,1696
1436.826500,1768
1436.827000,1817
1436.827500,1870
1436.828000,1928
1436.828500,1937
1436.829000,1864
1436.829500,1742
1436.830000,1707
1436.830500,1721
1436.831000,1744
1436.831500,1749
1436.832000,1746
1436.832500,1760
1436.833000,1763
1436.833500,1789
1436.834000,1797
1436.834500,1777
1436.835000,1781
1436.835500,1807
1436.836000,1821
1436.836500,1832
1436.837000,1820
1436.837500,1797
1436.838000,1759
1436.838500,1802
1436.839000,1816
1436.839500,1833
1436.840000,1900
1436.840500,1918
1436.841000,1902
1436.841500,1864
1436.842000,1788
1436.842500,1715
1436.843000,1643
1436.843500,1667
1436.844000,1722
1436.844500,1776
1436.845000,1822
1436.845500,1863
1436.846000,1893
1436.846500,1910
1436.847000,1921
1436.847500,1889
1436.848000,1860
1436.848500,1817
1436.849000,1748
1436.849500,1687
1436.850000,1682
1436.850500,1737
1436.851000,1794
1436.851500,1796
1436.852000,1799
1436.852500,1815
1436.853000,1829
1436.853500,1809
1436.854000,1770
1436.854500,1729
1436.855000,1715
1436.855500,1708
1436.856000,1742
1436.856500,1792
1436.857000,1812
1436.857500,1829
1436.858000,1849
1436.858500,1840
1436.859000,1791
1436.859500,1747
1436.860000,1754
1436.860500,1785
1436.861000,1759
1436.861500,1725
1436.862000,1727
1436.862500,1731
1436.863000,1742
1436.863500,1734
1436.864000,1765
1436.864500,1812
1436.865000,1815
1436.865500,1809
1436.866000,1814
1436.866500,1801
1436.867000,1799
1436.867500,1800
1436.868000,1799
1436.868500,1832
1436.869000,1819
1436.869500,1820
1436.870000,1807
1436.870500,1781
1436.871000,1781
1436.871500,1790
1436.872000,1808
1436.872500,1818
1436.873000,1835
1436.873500,1896
1436.874000,1924
1436.874500,1914
1436.875000,1908
1436.875500,1859
1436.876000,1826
1436.876500,1780
1436.877000,1771
1436.877500,1806
1436.878000,1831
1436.878500,1822
1436.879000,1843
1436.879500,1821
1436.880000,1803
1436.880500,1827
1436.881000,1778
1436.881500,1705
1436.882000,1693
1436.882500,1683
1436.883000,1613
1436.883500,1586
1436.884000,1641
1436.884500,1771
1436.885000,1865
1436.885500,1864
1436.886000,1811
1436.886500,1771
1436.887000,1769
1436.887500,1719
1436.888000,1777
1436.888500,1861
1436.889000,1874
1436.889500,1838
1436.890000,1795
1436.890500,1709
1436.891000,1615
1436.891500,1623
1436.892000,1731
1436.892500,1887
1436.893000,1956
1436.893500,1948
1436.894000,1917
1436.894500,1870
1436.895000,1830
1436.895500,1739
1436.896000,1662
1436.896500,1667
1436.897000,1699
1436.897500,1714
1436.898000,1713
1436.898500,1714
1436.899000,1741
1436.899500,1769
1436.900000,1772
1436.900500,1768
1436.901000,1788
1436.901500,1845
1436.902000,1873
1436.902500,1871
1436.903000,1864
1436.903500,1847
1436.904000,1840
1436.904500,1836
1436.905000,1862
1436.905500,1892
1436.906000,1886
1436.906500,1851
1436.907000,1800
1436.907500,1826
1436.908000,1835
1436.908500,1798
1436.909000,1744
1436.909500,1714
1436.910000,1694
1436.910500,1675
1436.911000,1670
1436.911500,1692
1436.912000,1710
1436.912500,1790
1436.913000,1858
1436.913500,1904
1436.914000,1942
1436.914500,1941
1436.915000,1921
1436.915500,1906
1436.916000,1830
1436.916500,1718
1436.917000,1623
1436.917500,1676
1436.918000,1749
1436.918500,1767
1436.919000,1731
1436.919500,1708
1436.920000,1672
1436.920500,1677
1436.921000,1713
1436.921500,1770
1436.922000,1826
1436.922500,1855
1436.923000,1941
1436.923500,1956
1436.924000,1914
1436.924500,1865
1436.925000,1804
1436.925500,1736
1436.926000,1687
1436.926500,1712
1436.927000,1773
1436.927500,1800
1436.928000,1814
1436.928500,1814
1436.929000,1804
1436.929500,1771
1436.930000,1745
1436.930500,1713
1436.931000,1726
1436.931500,1778
1436.932000,1841
1436.932500,1858
1436.933000,1830
1436.933500,1814
1436.934000,1805
1436.934500,1758
1436.935000,1706
1436.935500,1742
1436.936000,1808
1436.936500,1875
1436.937000,1906
1436.937500,1903
1436.938000,1874
1436.938500,1779
1436.939000,1722
1436.939500,1761
1436.940000,1793
1436.940500,1825
1436.941000,1868
1436.941500,1870
1436.942000,1911
1436.942500,1917
1436.943000,1874
1436.943500,1808
1436.944000,1705
1436.944500,1613
1436.945000,1602
1436.945500,1600
1436.946000,1587
1436.946500,1611
1436.947000,1631
1436.947500,1694
1436.948000,1820
1436.948500,1914
1436.949000,1938
1436.949500,1939
1436.950000,1919
1436.950500,1880
1436.951000,1859
1436.951500,1833
1436.952000,1790
1436.952500,1779
1436.953000,1778
1436.953500,1767
1436.954000,1749
1436.954500,1738
1436.955000,1772
1436.955500,1775
1436.956000,1780
1436.956500,1765
1436.957000,1760
1436.957500,1764
1436.958000,1767
1436.958500,1728
1436.959000,1701
1436.959500,1705
1436.960000,1753
1436.960500,1828
1436.961000,1912
1436.961500,1957
1436.962000,2001
1436.962500,1982
1436.963000,1953
1436.963500,1896
1436.964000,1817
1436.964500,1732
1436.965000,1690
1436.965500,1771
1436.966000,1928
1436.966500,2002
1436.967000,1941
1436.967500,1813
1436.968000,1705
1436.968500,1661
1436.969000,1659
1436.969500,1744
1436.970000,1815
1436.970500,1818
1436.971000,1777
1436.971500,1748
1436.972000,1676
1436.972500,1584
1436.973000,1582
1436.973500,1695
1436.974000,1790
1436.974500,1832
1436.975000,1832
1436.975500,1780
1436.976000,1693
1436.976500,1648
1436.977000,1700
1436.977500,1748
1436.978000,1750
1436.978500,1792
1436.979000,1825
1436.979500,1838
1436.980000,1822
1436.980500,1799
1436.981000,1761
1436.981500,1711
1436.982000,1725
1436.982500,1755
1436.983000,1788
1436.983500,1863
1436.984000,1944
1436.984500,1960
1436.985000,1949
1436.985500,1884
1436.986000,1864
1436.986500,1843
1436.987000,1845
1436.987500,1821
1436.988000,1843
1436.988500,1855
1436.989000,1834
1436.989500,1780
1436.990000,1767
1436.990500,1692
1436.991000,1647
1436.991500,1653
1436.992000,1705
1436.992500,1749
1436.993000,1801
1436.993500,1796
1436.994000,1791
1436.994500,1833
1436.995000,1849
1436.995500,1815
1436.996000,1754
1436.996500,1711
1436.997000,1690
1436.997500,1721
1436.998000,1717
1436.998500,1720
1436.999000,1772
1436.999500,1831
1437.000000,1849
1437.000500,1862
1437.001000,1852
1437.001500,1858
1437.002000,1810
1437.002500,1792
1437.003000,1790
1437.003500,1793
1437.004000,1783
1437.004500,1761
1437.005000,1719
1437.005500,1700
1437.006000,1716
1437.006500,1745
1437.007000,1826
1437.007500,1892
1437.008000,1953
1437.008500,1964
1437.009000,1903
1437.009500,1817
1437.010000,1706
1437.010500,1660
1437.011000,1728
1437.011500,1824
1437.012000,1903
1437.012500,1911
1437.013000,1851
1437.013500,1780
1437.014000,1804
1437.014500,1859
1437.015000,1907
1437.015500,1878
1437.016000,1796
1437.016500,1732
1437.017000,1780
1437.017500,1802
1437.018000,1768
1437.018500,1642
1437.019000,1576
1437.019500,1631
1437.020000,1728
1437.020500,1756
1437.021000,1740
1437.021500,1749
1437.022000,1764
1437.022500,1790
1437.023000,1789
1437.023500,1800
1437.024000,1809
1437.024500,1806
1437.025000,1795
1437.025500,1731
1437.026000,1703
1437.026500,1727
1437.027000,1794
1437.027500,1865
1437.028000,1902
1437.028500,1895
1437.029000,1845
1437.029500,1786
1437.030000,1754
1437.030500,1790
1437.031000,1810
1437.031500,1850
1437.032000,1869
1437.032500,1859
1437.033000,1861
1437.033500,1831
1437.034000,1778
1437.034500,1769
1437.035000,1810
1437.035500,1836
1437.036000,1807
1437.036500,1771
1437.037000,1777
1437.037500,1842
1437.038000,1880
1437.038500,1834
1437.039000,1767
1437.039500,1718
1437.040000,1700
1437.040500,1644
1437.041000,1616
1437.041500,1640
1437.042000,1715
1437.042500,1756
1437.043000,1743
1437.043500,1746
1437.044000,1775
1437.044500,1803
1437.045000,1820
1437.045500,1867
1437.046000,1907
1437.046500,1908
1437.047000,1919
1437.047500,1936
1437.048000,1926
1437.048500,1931
1437.049000,1895
1437.049500,1835
1437.050000,1742
1437.050500,1688
1437.051000,1693
1437.051500,1732
1437.052000,1745
1437.052500,1751
1437.053000,1742
1437.053500,1743
1437.054000,1715
1437.054500,1699
1437.055000,1794
1437.055500,1873
1437.056000,1918
1437.056500,1899
1437.057000,1870
1437.057500,1805
1437.058000,1693
1437.058500,1638
1437.059000,1649
1437.059500,1691
1437.060000,1755
1437.060500,1796
1437.061000,1803
1437.061500,1776
1437.062000,1754
1437.062500,1760
1437.063000,1817
1437.063500,1849
1437.064000,1848
1437.064500,1829
1437.065000,1768
1437.065500,1658
1437.066000,1648
1437.066500,1755
1437.067000,1822
1437.067500,1849
1437.068000,1870
1437.068500,1933
1437.069000,1939
1437.069500,1876
1437.070000,1812
1437.070500,1794
1437.071000,1802
1437.071500,1826
1437.072000,1827
1437.072500,1810
1437.073000,1766
1437.073500,1727
1437.074000,1702
1437.074500,1711
1437.075000,1725
1437.075500,1761
1437.076000,1802
1437.076500,1828
1437.077000,1847
1437.077500,1869
1437.078000,1882
1437.078500,1869
1437.079000,1893
1437.079500,1896
1437.080000,1908
1437.080500,1894
1437.081000,1886
1437.081500,1827
1437.082000,1784
1437.082500,1773
1437.083000,1746
1437.083500,1735
1437.084000,1698
1437.084500,1662
1437.085000,1607
1437.085500,1542
1437.086000,1573
1437.086500,1630
1437.087000,1671
1437.087500,1712
1437.088000,1743
1437.088500,1765
1437.089000,1787
1437.089500,1802
1437.090000,1811
1437.090500,1805
1437.091000,1798
1437.091500,1802
1437.092000,1803
1437.092500,1805
1437.093000,1812
1437.093500,1826
1437.094000,1839
1437.094500,1851
1437.095000,1828
1437.095500,1844
1437.096000,1901
1437.096500,1952
1437.097000,1921
1437.097500,1877
1437.098000,1828
1437.098500,1765
1437.099000,1729
1437.099500,1721
1437.100000,1722
1437.100500,1725
1437.101000,1716
1437.101500,1707
1437.102000,1704
1437.102500,1716
1437.103000,1766
1437.103500,1863
1437.104000,1874
1437.104500,1872
1437.105000,1882
1437.105500,1852
1437.106000,1808
1437.106500,1833
1437.107000,1890
1437.107500,1928
1437.108000,1901
1437.108500,1813
1437.109000,1746
1437.109500,1704
1437.110000,1682
1437.110500,1682
1437.111000,1724
1437.111500,1754
1437.112000,1788
1437.112500,1811
1437.113000,1824
1437.113500,1822
1437.114000,1815
1437.114500,1825
1437.115000,1823
1437.115500,1837
1437.116000,1865
1437.116500,1834
1437.117000,1760
1437.117500,1734
1437.118000,1751
1437.118500,1815
1437.119000,1856
1437.119500,1841
1437.120000,1824
1437.120500,1812
1437.121000,1793
1437.121500,1777
1437.122000,1748
1437.122500,1709
1437.123000,1641
1437.123500,1629
1437.124000,1686
1437.124500,1727
1437.125000,1773
1437.125500,1842
1437.126000,1888
1437.126500,1900
1437.127000,1896
1437.127500,1887
1437.128000,1864
1437.128500,1889
1437.129000,1908
1437.129500,1880
1437.130000,1847
1437.130500,1818
1437.131000,1763
1437.131500,1654
1437.132000,1576
1437.132500,1545
1437.133000,1618
1437.133500,1683
1437.134000,1722
1437.134500,1738
1437.135000,1749
1437.135500,1751
1437.136000,1769
1437.136500,1786
1437.137000,1805
1437.137500,1800
1437.138000,1821
1437.138500,1821
1437.139000,1831
1437.139500,1853
1437.140000,1880
1437.140500,1908
1437.141000,1934
1437.141500,1931
1437.142000,1896
1437.142500,1816
1437.143000,1707
1437.143500,1662
1437.144000,1672
1437.144500,1682
1437.145000,1752
1437.145500,1794
1437.146000,1788
1437.146500,1762
1437.147000,1724
1437.147500,1702
1437.148000,1683
1437.148500,1696
1437.149000,1735
1437.149500,1839
1437.150000,1980
1437.150500,2066
1437.151000,2066
1437.151500,1994
1437.152000,1924
1437.152500,1847
1437.153000,1783
1437.153500,1698
1437.154000,1649
1437.154500,1701
1437.155000,1742
1437.155500,1736
1437.156000,1742
1437.156500,1745
1437.157000,1786
1437.157500,1832
1437.158000,1827
1437.158500,1805
1437.159000,1768
1437.159500,1717
1437.160000,1642
1437.160500,1595
1437.161000,1681
1437.161500,1780
1437.162000,1808
1437.162500,1807
1437.163000,1826
1437.163500,1845
1437.164000,1841
1437.164500,1771
1437.165000,1745
1437.165500,1761
1437.166000,1829
1437.166500,1874
1437.167000,1930
1437.167500,1951
1437.168000,1970
1437.168500,1992
1437.169000,1984
1437.169500,1881
1437.170000,1752
1437.170500,1654
1437.171000,1581
1437.171500,1621
1437.172000,1685
1437.172500,1758
1437.173000,1776
1437.173500,1761
1437.174000,1712
1437.174500,1651
1437.175000,1669
1437.175500,1726
1437.176000,1796
1437.176500,1798
1437.177000,1819
1437.177500,1854
1437.178000,1923
1437.178500,1998
1437.179000,1982
1437.179500,1894
1437.180000,1782
1437.180500,1741
1437.181000,1788
1437.181500,1813
1437.182000,1770
1437.182500,1716
1437.183000,1704
1437.183500,1712
1437.184000,1696
1437.184500,1701
1437.185000,1735
1437.185500,1764
1437.186000,1792
1437.186500,1815
1437.187000,1824
1437.187500,1807
1437.188000,1799
1437.188500,1787
1437.189000,1755
1437.189500,1722
1437.190000,1752
1437.190500,1769
1437.191000,1772
1437.191500,1801
1437.192000,1840
1437.192500,1846
1437.193000,1839
1437.193500,1849
1437.194000,1840
1437.194500,1834
1437.195000,1777
1437.195500,1755
1437.196000,1790
1437.196500,1825
1437.197000,1848
1437.197500,1836
1437.198000,1780
1437.198500,1733
1437.199000,1729
1437.199500,1750
1437.200000,1797
1437.200500,1878
1437.201000,1929
1437.201500,1931
1437.202000,1881
1437.202500,1764
1437.203000,1649
1437.203500,1621
1437.204000,1687
1437.204500,1797
1437.205000,1860
1437.205500,1795
1437.206000,1783
1437.206500,1810
1437.207000,1807
1437.207500,1757
1437.208000,1789
1437.208500,1830
1437.209000,1836
1437.209500,1827
1437.210000,1819
1437.210500,1776
1437.211000,1710
1437.211500,1677
1437.212000,1736
1437.212500,1806
1437.213000,1831
1437.213500,1830
1437.214000,1807
1437.214500,1739
1437.215000,1710
1437.215500,1686
1437.216000,1697
1437.216500,1727
1437.217000,1755
1437.217500,1773
1437.218000,1799
1437.218500,1838
1437.219000,1861
1437.219500,1845
1437.220000,1880
1437.220500,1901
1437.221000,1857
1437.221500,1801
1437.222000,1731
1437.222500,1687
1437.223000,1640
1437.223500,1608
1437.224000,1662
1437.224500,1787
1437.225000,1920
1437.225500,2018
1437.226000,2059
1437.226500,2026
1437.227000,1953
1437.227500,1879
1437.228000,1830
1437.228500,1803
1437.229000,1780
1437.229500,1755
1437.230000,1771
1437.230500,1768
1437.231000,1760
1437.231500,1745
1437.232000,1752
1437.232500,1753
1437.233000,1740
1437.233500,1706
1437.234000,1689
1437.234500,1722
1437.235000,1750
1437.235500,1766
1437.236000,1809
1437.236500,1801
1437.237000,1796
1437.237500,1780
1437.238000,1810
1437.238500,1813
1437.239000,1767
1437.239500,1743
1437.240000,1739
1437.240500,1741
1437.241000,1748
1437.241500,1759
1437.242000,1818
1437.242500,1846
1437.243000,1891
1437.243500,1919
1437.244000,1944
1437.244500,1920
1437.245000,1911
1437.245500,1870
1437.246000,1833
1437.246500,1786
1437.247000,1778
1437.247500,1776
1437.248000,1759
1437.248500,1739
1437.249000,1728
1437.249500,1723
1437.250000,1735
1437.250500,1730
1437.251000,1721
1437.251500,1726
1437.252000,1744
1437.252500,1741
1437.253000,1751
1437.253500,1762
1437.254000,1769
1437.254500,1776
1437.255000,1793
1437.255500,1795
1437.256000,1761
1437.256500,1732
1437.257000,1692
1437.257500,1682
1437.258000,1746
1437.258500,1793
1437.259000,1814
1437.259500,1872
1437.260000,1917
1437.260500,1936
1437.261000,1904
1437.261500,1868
1437.262000,1855
1437.262500,1822
1437.263000,1765
1437.263500,1731
1437.264000,1734
1437.264500,1764
1437.265000,1822
1437.265500,1823
1437.266000,1765
1437.266500,1739
1437.267000,1816
1437.267500,1912
1437.268000,1964
1437.268500,2034
1437.269000,2011
1437.269500,1952
1437.270000,1882
1437.270500,1804
1437.271000,1773
1437.271500,1726
1437.272000,1662
1437.272500,1589
1437.273000,1618
1437.273500,1744
1437.274000,1849
1437.274500,1837
1437.275000,1731
1437.275500,1616
1437.276000,1589
1437.276500,1621
1437.277000,1689
1437.277500,1778
1437.278000,1814
1437.278500,1797
1437.279000,1812
1437.279500,1858
1437.280000,1897
1437.280500,1916
1437.281000,1923
1437.281500,1879
1437.282000,1809
1437.282500,1750
1437.283000,1714
1437.283500,1701
1437.284000,1697
1437.284500,1726
1437.285000,1753
1437.285500,1759
1437.286000,1817
1437.286500,1886
1437.287000,1897
1437.287500,1861
1437.288000,1838
1437.288500,1837
1437.289000,1803
1437.289500,1741
1437.290000,1731
1437.290500,1769
1437.291000,1813
1437.291500,1837
1437.292000,1839
1437.292500,1777
1437.293000,1703
1437.293500,1705
1437.294000,1758
1437.294500,1768
1437.295000,1740
1437.295500,1686
1437.296000,1643
1437.296500,1632
1437.297000,1702
1437.297500,1762
1437.298000,1787
1437.298500,1810
1437.299000,1844
1437.299500,1862
1437.300000,1886
1437.300500,1896
1437.301000,1917
1437.301500,1918
1437.302000,1903
1437.302500,1848
1437.303000,1750
1437.303500,1704
1437.304000,1711
1437.304500,1746
1437.305000,1787
1437.305500,1825
1437.306000,1803
1437.306500,1787
1437.307000,1789
1437.307500,1865
1437.308000,1931
1437.308500,1952
1437.309000,1962
1437.309500,1913
1437.310000,1839
1437.310500,1735
1437.311000,1639
1437.311500,1569
1437.312000,1610
1437.312500,1714
1437.313000,1768
1437.313500,1756
1437.314000,1727
1437.314500,1753
1437.315000,1791
1437.315500,1803
1437.316000,1798
1437.316500,1772
1437.317000,1769
1437.317500,1790
1437.318000,1821
1437.318500,1858
1437.319000,1902
1437.319500,1901
1437.320000,1835
1437.320500,1768
1437.321000,1787
1437.321500,1854
1437.322000,1825
1437.322500,1747
1437.323000,1717
1437.323500,1760
1437.324000,1828
1437.324500,1887
1437.325000,1900
1437.325500,1848
1437.326000,1784
1437.326500,1713
1437.327000,1648
1437.327500,1630
1437.328000,1664
1437.328500,1702
1437.329000,1723
1437.329500,1734
1437.330000,1714
1437.330500,1720
1437.331000,1766
1437.331500,1788
1437.332000,1816
1437.332500,1832
1437.333000,1827
1437.333500,1837
1437.334000,1877
1437.334500,1936
1437.335000,2007
1437.335500,2045
1437.336000,2019
1437.336500,1972
1437.337000,1894
1437.337500,1831
1437.338000,1812
1437.338500,1786
1437.339000,1733
1437.339500,1652
1437.340000,1589
1437.340500,1547
1437.341000,1588
1437.341500,1646
1437.342000,1684
1437.342500,1680
1437.343000,1698
1437.343500,1770
1437.344000,1852
1437.344500,1914
1437.345000,1946
1437.345500,1955
1437.346000,1919
1437.346500,1839
1437.347000,1752
1437.347500,1698
1437.348000,1724
1437.348500,1778
1437.349000,1787
1437.349500,1784
1437.350000,1778
1437.350500,1788
1437.351000,1827
1437.351500,1846
1437.352000,1876
1437.352500,1850
1437.353000,1807
1437.353500,1785
1437.354000,1763
1437.354500,1731
1437.355000,1694
1437.355500,1720
1437.356000,1772
1437.356500,1819
1437.357000,1834
1437.357500,1795
1437.358000,1755
1437.358500,1745
1437.359000,1728
1437.359500,1739
1437.360000,1785
1437.360500,1816
1437.361000,1832
1437.361500,1832
1437.362000,1797
1437.362500,1759
1437.363000,1742
1437.363500,1768
1437.364000,1815
1437.364500,1858
1437.365000,1880
1437.365500,1884
1437.366000,1857
1437.366500,1827
1437.367000,1786
1437.367500,1741
1437.368000,1704
1437.368500,1756
1437.369000,1858
1437.369500,1893
1437.370000,1865
1437.370500,1779
1437.371000,1659
1437.371500,1613
1437.372000,1682
1437.372500,1727
1437.373000,1716
1437.373500,1710
1437.374000,1743
1437.374500,1801
1437.375000,1837
1437.375500,1881
1437.376000,1930
1437.376500,1872
1437.377000,1851
1437.377500,1799
1437.378000,1753
1437.378500,1706
1437.379000,1704
1437.379500,1748
1437.380000,1783
1437.380500,1804
1437.381000,1838
1437.381500,1859
1437.382000,1833
1437.382500,1851
1437.383000,1836
1437.383500,1848
1437.384000,1835
1437.384500,1816
1437.385000,1786
1437.385500,1778
1437.386000,1800
1437.386500,1848
1437.387000,1895
1437.387500,1908
1437.388000,1900
1437.388500,1855
1437.389000,1746
1437.389500,1686
1437.390000,1674
1437.390500,1705
1437.391000,1760
1437.391500,1787
1437.392000,1780
1437.392500,1774
1437.393000,1809
1437.393500,1846
1437.394000,1882
1437.394500,1909
1437.395000,1921
1437.395500,1878
1437.396000,1842
1437.396500,1797
1437.397000,1730
1437.397500,1670
1437.398000,1621
1437.398500,1654
1437.399000,1682
1437.399500,1688
1437.400000,1719
1437.400500,1741
1437.401000,1740
1437.401500,1798
1437.402000,1888
1437.402500,1937
1437.403000,1962
1437.403500,1942
1437.404000,1849
1437.404500,1758
1437.405000,1701
1437.405500,1672
1437.406000,1662
1437.406500,1714
1437.407000,1741
1437.407500,1735
1437.408000,1727
1437.408500,1751
1437.409000,1774
1437.409500,1764
1437.410000,1724
1437.410500,1727
1437.411000,1739
1437.411500,1756
1437.412000,1758
1437.412500,1798
1437.413000,1828
1437.413500,1849
1437.414000,1820
1437.414500,1858
1437.415000,1908
1437.415500,1910
1437.416000,1892
1437.416500,1839
1437.417000,1778
1437.417500,1738
1437.418000,1706
1437.418500,1690
1437.419000,1734
1437.419500,1815
1437.420000,1816
1437.420500,1771
1437.421000,1750
1437.421500,1762
1437.422000,1771
1437.422500,1786
1437.423000,1787
1437.423500,1766
1437.424000,1747
1437.424500,1736
1437.425000,1743
1437.425500,1753
1437.426000,1781
1437.426500,1832
1437.427000,1855
1437.427500,1864
1437.428000,1856
1437.428500,1882
1437.429000,1920
1437.429500,1906
1437.430000,1954
1437.430500,2028
1437.431000,2021
1437.431500,2024
1437.432000,2043
1437.432500,1999
1437.433000,1890
1437.433500,1726
1437.434000,1594
1437.434500,1509
1437.435000,1495
1437.435500,1525
1437.436000,1591
1437.436500,1626
1437.437000,1670
1437.437500,1754
1437.438000,1829
1437.438500,1897
1437.439000,1928
1437.439500,1902
1437.440000,1834
1437.440500,1765
1437.441000,1770
1437.441500,1809
1437.442000,1832
1437.442500,1787
1437.443000,1762
1437.443500,1768
1437.444000,1744
1437.444500,1707
1437.445000,1674
1437.445500,1653
1437.446000,1662
1437.446500,1703
1437.447000,1756
1437.447500,1757
1437.448000,1773
1437.448500,1789
1437.449000,1833
1437.449500,1823
1437.450000,1800
1437.450500,1779
1437.451000,1793
1437.451500,1831
1437.452000,1878
1437.452500,1889
1437.453000,1816
1437.453500,1776
1437.454000,1789
1437.454500,1826
1437.455000,1839
1437.455500,1849
1437.456000,1923
1437.456500,1946
1437.457000,1960
1437.457500,2022
1437.458000,2056
1437.458500,2020
1437.459000,1867
1437.459500,1736
1437.460000,1664
1437.460500,1595
1437.461000,1560
1437.461500,1544
1437.462000,1597
1437.462500,1642
1437.463000,1692
1437.463500,1765
1437.464000,1818
1437.464500,1834
1437.465000,1859
1437.465500,1866
1437.466000,1803
1437.466500,1735
1437.467000,1693
1437.467500,1701
1437.468000,1712
1437.468500,1720
1437.469000,1763
1437.469500,1841
1437.470000,1880
1437.470500,1886
1437.471000,1864
1437.471500,1825
1437.472000,1763
1437.472500,1732
1437.473000,1757
1437.473500,1798
1437.474000,1821
1437.474500,1809
1437.475000,1808
1437.475500,1821
1437.476000,1819
1437.476500,1795
1437.477000,1765
1437.477500,1733
1437.478000,1719
1437.478500,1748
1437.479000,1800
1437.479500,1795
1437.480000,1789
1437.480500,1763
1437.481000,1775
1437.481500,1789
1437.482000,1776
1437.482500,1775
1437.483000,1789
1437.483500,1836
1437.484000,1852
1437.484500,1828
1437.485000,1825
1437.485500,1870
1437.486000,1963
1437.486500,1998
1437.487000,1988
1437.487500,1946
1437.488000,1861
1437.488500,1731
1437.489000,1606
1437.489500,1552
1437.490000,1603
1437.490500,1673
1437.491000,1698
1437.491500,1719
1437.492000,1759
1437.492500,1793
1437.493000,1806
1437.493500,1805
1437.494000,1758
1437.494500,1721
1437.495000,1726
1437.495500,1761
1437.496000,1813
1437.496500,1846
1437.497000,1842
1437.497500,1785
1437.498000,1754
1437.498500,1816
1437.499000,1882
1437.499500,1869
1437.500000,1831
1437.500500,1810
1437.501000,1786
1437.501500,1780
1437.502000,1789
1437.502500,1798
1437.503000,1776
1437.503500,1780
1437.504000,1750
1437.504500,1763
1437.505000,1732
1437.505500,1708
1437.506000,1706
1437.506500,1768
1437.507000,1808
1437.507500,1798
1437.508000,1776
1437.508500,1771
1437.509000,1815
1437.509500,1901
1437.510000,1972
1437.510500,2000
1437.511000,1991
1437.511500,1969
1437.512000,1879
1437.512500,1755
1437.513000,1673
1437.513500,1682
1437.514000,1686
1437.514500,1693
1437.515000,1689
1437.515500,1691
1437.516000,1735
1437.516500,1723
1437.517000,1703
1437.517500,1767
1437.518000,1842
1437.518500,1888
1437.519000,1871
1437.519500,1821
1437.520000,1748
1437.520500,1718
1437.521000,1746
1437.521500,1753
1437.522000,1758
1437.522500,1787
1437.523000,1883
1437.523500,1999
1437.524000,2028
1437.524500,1966
1437.525000,1895
1437.525500,1780
1437.526000,1725
1437.526500,1661
1437.527000,1634
1437.527500,1613
1437.528000,1685
1437.528500,1744
1437.529000,1771
1437.529500,1770
1437.530000,1751
1437.530500,1756
1437.531000,1765
1437.531500,1774
1437.532000,1836
1437.532500,1884
1437.533000,1893
1437.533500,1901
1437.534000,1817
1437.534500,1769
1437.535000,1778
1437.535500,1816
1437.536000,1878
1437.536500,1898
1437.537000,1883
1437.537500,1806
1437.538000,1743
1437.538500,1738
1437.539000,1743
1437.539500,1736
1437.540000,1756
1437.540500,1780
1437.541000,1793
1437.541500,1811
1437.542000,1826
1437.542500,1861
1437.543000,1884
1437.543500,1859
1437.544000,1823
1437.544500,1762
1437.545000,1711
1437.545500,1711
1437.546000,1721
1437.546500,1710
1437.547000,1691
1437.547500,1689
1437.548000,1715
1437.548500,1708
1437.549000,1688
1437.549500,1699
1437.550000,1740
1437.550500,1789
1437.551000,1902
1437.551500,1990
1437.552000,2058
1437.552500,2077
1437.553000,2021
1437.553500,1875
1437.554000,1691
1437.554500,1670
1437.555000,1727
1437.555500,1755
1437.556000,1729
1437.556500,1737
1437.557000,1772
1437.557500,1752
1437.558000,1731
1437.558500,1708
1437.559000,1687
1437.559500,1713
1437.560000,1780
1437.560500,1807
1437.561000,1845
1437.561500,1823
1437.562000,1810
1437.562500,1810
1437.563000,1800
1437.563500,1805
1437.564000,1815
1437.564500,1832
1437.565000,1809
1437.565500,1791
1437.566000,1763
1437.566500,1742
1437.567000,1706
1437.567500,1675
1437.568000,1646
1437.568500,1635
1437.569000,1688
1437.569500,1781
1437.570000,1927
1437.570500,2026
1437.571000,2025
1437.571500,1956
1437.572000,1850
1437.572500,1769
1437.573000,1744
1437.573500,1809
1437.574000,1888
1437.574500,1885
1437.575000,1869
1437.575500,1817
1437.576000,1751
1437.576500,1746
1437.577000,1803
1437.577500,1862
1437.578000,1882
1437.578500,1843
1437.579000,1769
1437.579500,1662
1437.580000,1615
1437.580500,1605
1437.581000,1611
1437.581500,1657
1437.582000,1728
1437.582500,1782
1437.583000,1809
1437.583500,1795
1437.584000,1775
1437.584500,1771
1437.585000,1778
1437.585500,1806
1437.586000,1847
1437.586500,1854
1437.587000,1865
1437.587500,1843
1437.588000,1802
1437.588500,1761
1437.589000,1786
1437.589500,1842
1437.590000,1911
1437.590500,1911
1437.591000,1892
1437.591500,1833
1437.592000,1817
1437.592500,1760
1437.593000,1744
1437.593500,1737
1437.594000,1718
1437.594500,1711
1437.595000,1720
1437.595500,1756
1437.596000,1748
1437.596500,1710
1437.597000,1704
1437.597500,1761
1437.598000,1868
1437.598500,1916
1437.599000,1960
1437.599500,1983
1437.600000,1936
1437.600500,1852
1437.601000,1779
1437.601500,1793
1437.602000,1800
1437.602500,1818
1437.603000,1837
1437.603500,1833
1437.604000,1828
1437.604500,1798
1437.605000,1724
1437.605500,1667
1437.606000,1674
1437.606500,1711
1437.607000,1753
1437.607500,1772
1437.608000,1768
1437.608500,1756
1437.609000,1735
1437.609500,1757
1437.610000,1791
1437.610500,1804
1437.611000,1794
1437.611500,1794
1437.612000,1729
1437.612500,1630
1437.613000,1630
1437.613500,1701
1437.614000,1739
1437.614500,1746
1437.615000,1761
1437.615500,1754
1437.616000,1736
1437.616500,1754
1437.617000,1800
1437.617500,1881
1437.618000,1908
1437.618500,1894
1437.619000,1835
1437.619500,1778
1437.620000,1780
1437.620500,1816
1437.621000,1844
1437.621500,1884
1437.622000,1897
1437.622500,1893
1437.623000,1862
1437.623500,1804
1437.624000,1761
1437.624500,1734
1437.625000,1743
1437.625500,1762
1437.626000,1778
1437.626500,1770
1437.627000,1755
1437.627500,1750
1437.628000,1768
1437.628500,1798
1437.629000,1822
1437.629500,1830
1437.630000,1855
1437.630500,1846
1437.631000,1825
1437.631500,1772
1437.632000,1743
1437.632500,1727
1437.633000,1733
1437.633500,1752
1437.634000,1773
1437.634500,1793
1437.635000,1866
1437.635500,1940
1437.636000,1954
1437.636500,1933
1437.637000,1920
1437.637500,1887
1437.638000,1827
1437.638500,1691
1437.639000,1616
1437.639500,1580
1437.640000,1565
1437.640500,1557
1437.641000,1645
1437.641500,1758
1437.642000,1862
1437.642500,1947
1437.643000,1957
1437.643500,1938
1437.644000,1920
1437.644500,1867
1437.645000,1784
1437.645500,1726
1437.646000,1688
1437.646500,1708
1437.647000,1766
1437.647500,1809
1437.648000,1831
1437.648500,1844
1437.649000,1877
1437.649500,1923
1437.650000,1935
1437.650500,1952
1437.651000,1877
1437.651500,1791
1437.652000,1704
1437.652500,1641
1437.653000,1635
1437.653500,1650
1437.654000,1664
1437.654500,1698
1437.655000,1774
1437.655500,1888
1437.656000,2009
1437.656500,2016
1437.657000,1950
1437.657500,1877
1437.658000,1792
1437.658500,1651
1437.659000,1576
1437.659500,1623
1437.660000,1718
1437.660500,1759
1437.661000,1769
1437.661500,1789
1437.662000,1827
1437.662500,1847
1437.663000,1804
1437.663500,1729
1437.664000,1728
1437.664500,1776
1437.665000,1775
1437.665500,1753
1437.666000,1766
1437.666500,1766
1437.667000,1766
1437.667500,1805
1437.668000,1864
1437.668500,1894
1437.669000,1917
1437.669500,1927
1437.670000,1924
1437.670500,1882
1437.671000,1792
1437.671500,1694
1437.672000,1610
1437.672500,1625
1437.673000,1719
1437.673500,1815
1437.674000,1838
1437.674500,1817
1437.675000,1797
1437.675500,1766
1437.676000,1787
1437.676500,1822
1437.677000,1840
1437.677500,1842
1437.678000,1829
1437.678500,1820
1437.679000,1796
1437.679500,1764
1437.680000,1740
1437.680500,1693
1437.681000,1685
1437.681500,1717
1437.682000,1760
1437.682500,1784
1437.683000,1778
1437.683500,1759
1437.684000,1772
1437.684500,1803
1437.685000,1834
1437.685500,1856
1437.686000,1873
1437.686500,1865
1437.687000,1806
1437.687500,1755
1437.688000,1760
1437.688500,1770
1437.689000,1793
1437.689500,1820
1437.690000,1873
1437.690500,1905
1437.691000,1902
1437.691500,1892
1437.692000,1880
1437.692500,1853
1437.693000,1824
1437.693500,1782
1437.694000,1750
1437.694500,1742
1437.695000,1755
1437.695500,1769
1437.696000,1786
1437.696500,1754
1437.697000,1687
1437.697500,1635
1437.698000,1643
1437.698500,1745
1437.699000,1776
1437.699500,1790
1437.700000,1782
1437.700500,1743
1437.701000,1699
1437.701500,1671
1437.702000,1682
1437.702500,1714
1437.703000,1752
1437.703500,1791
1437.704000,1810
1437.704500,1857
1437.705000,1909
1437.705500,2000
1437.706000,2012
1437.706500,1953
1437.707000,1879
1437.707500,1836
1437.708000,1756
1437.708500,1698
1437.709000,1658
1437.709500,1697
1437.710000,1776
1437.710500,1830
1437.711000,1857
1437.711500,1854
1437.712000,1877
1437.712500,1899
1437.713000,1871
1437.713500,1853
1437.714000,1854
1437.714500,1824
1437.715000,1740
1437.715500,1671
1437.716000,1670
1437.716500,1697
1437.717000,1756
1437.717500,1769
1437.718000,1751
1437.718500,1754
1437.719000,1744
1437.719500,1734
1437.720000,1700
1437.720500,1703
1437.721000,1749
1437.721500,1770
1437.722000,1783
1437.722500,1769
1437.723000,1783
1437.723500,1778
1437.724000,1774
1437.724500,1801
1437.725000,1793
1437.725500,1793
1437.726000,1816
1437.726500,1869
1437.727000,1899
1437.727500,1937
1437.728000,1944
1437.728500,1931
1437.729000,1901
1437.729500,1856
1437.730000,1804
1437.730500,1787
1437.731000,1761
1437.731500,1725
1437.732000,1692
1437.732500,1682
1437.733000,1698
1437.733500,1753
1437.734000,1783
1437.734500,1768
1437.735000,1764
1437.735500,1756
1437.736000,1763
1437.736500,1756
1437.737000,1744
1437.737500,1747
1437.738000,1797
1437.738500,1800
1437.739000,1803
1437.739500,1793
1437.740000,1839
1437.740500,1930
1437.741000,1995
1437.741500,1979
1437.742000,1938
1437.742500,1934
1437.743000,1907
1437.743500,1809
1437.744000,1762
1437.744500,1730
1437.745000,1750
1437.745500,1754
1437.746000,1740
1437.746500,1664
1437.747000,1578
1437.747500,1596
1437.748000,1694
1437.748500,1766
1437.749000,1774
1437.749500,1746
1437.750000,1703
1437.750500,1674
1437.751000,1686
1437.751500,1731
1437.752000,1786
1437.752500,1817
1437.753000,1825
1437.753500,1843
1437.754000,1837
1437.754500,1819
1437.755000,1795
1437.755500,1794
1437.756000,1815
1437.756500,1797
1437.757000,1753
1437.757500,1752
1437.758000,1758
1437.758500,1769
1437.759000,1817
1437.759500,1848
1437.760000,1848
1437.760500,1848
1437.761000,1839
1437.761500,1799
1437.762000,1785
1437.762500,1799
1437.763000,1847
1437.763500,1855
1437.764000,1854
1437.764500,1818
1437.765000,1741
1437.765500,1695
1437.766000,1691
1437.766500,1694
1437.767000,1731
1437.767500,1778
1437.768000,1825
1437.768500,1842
1437.769000,1825
1437.769500,1838
1437.770000,1848
1437.770500,1825
1437.771000,1797
1437.771500,1765
1437.772000,1752
1437.772500,1762
1437.773000,1781
1437.773500,1813
1437.774000,1853
1437.774500,1877
1437.775000,1893
1437.775500,1894
1437.776000,1893
1437.776500,1900
1437.777000,1873
1437.777500,1840
1437.778000,1818
1437.778500,1785
1437.779000,1740
1437.779500,1721
1437.780000,1717
1437.780500,1734
1437.781000,1809
1437.781500,1868
1437.782000,1907
1437.782500,1909
1437.783000,1839
1437.783500,1749
1437.784000,1677
1437.784500,1645
1437.785000,1642
1437.785500,1674
1437.786000,1763
1437.786500,1860
1437.787000,1894
1437.787500,1873
1437.788000,1789
1437.788500,1659
1437.789000,1622
1437.789500,1664
1437.790000,1706
1437.790500,1693
1437.791000,1726
1437.791500,1775
1437.792000,1775
1437.792500,1833
1437.793000,1889
1437.793500,1911
1437.794000,1907
1437.794500,1855
1437.795000,1814
1437.795500,1766
1437.796000,1698
1437.796500,1685
1437.797000,1736
1437.797500,1809
1437.798000,1815
1437.798500,1772
1437.799000,1745
1437.799500,1746
1437.800000,1756
1437.800500,1777
1437.801000,1794
1437.801500,1806
1437.802000,1841
1437.802500,1833
1437.803000,1811
1437.803500,1804
1437.804000,1785
1437.804500,1790
1437.805000,1816
1437.805500,1858
1437.806000,1907
1437.806500,1919
1437.807000,1919
1437.807500,1912
1437.808000,1899
1437.808500,1856
1437.809000,1802
1437.809500,1729
1437.810000,1675
1437.810500,1683
1437.811000,1694
1437.811500,1718
1437.812000,1747
1437.812500,1768
1437.813000,1767
1437.813500,1768
1437.814000,1756
1437.814500,1748
1437.815000,1754
1437.815500,1765
1437.816000,1794
1437.816500,1814
1437.817000,1819
1437.817500,1815
1437.818000,1812
1437.818500,1810
1437.819000,1800
1437.819500,1836
1437.820000,1888
1437.820500,1891
1437.821000,1880
1437.821500,1888
1437.822000,1865
1437.822500,1792
1437.823000,1739
1437.823500,1690
1437.824000,1650
1437.824500,1684
1437.825000,1752
1437.825500,1759
1437.826000,1749
1437.826500,1770
1437.827000,1805
1437.827500,1799
1437.828000,1816
1437.828500,1808
1437.829000,1805
1437.829500,1787
1437.830000,1808
1437.830500,1877
1437.831000,1968
1437.831500,1987
1437.832000,1956
1437.832500,1927
1437.833000,1876
1437.833500,1804
1437.834000,1713
1437.834500,1628
1437.835000,1601
1437.835500,1668
1437.836000,1728
1437.836500,1765
1437.837000,1782
1437.837500,1760
1437.838000,1775
1437.838500,1790
1437.839000,1840
1437.839500,1902
1437.840000,1892
1437.840500,1858
1437.841000,1835
1437.841500,1793
1437.842000,1745
1437.842500,1722
1437.843000,1727
1437.843500,1726
1437.844000,1728
1437.844500,1724
1437.845000,1726
1437.845500,1740
1437.846000,1781
1437.846500,1785
1437.847000,1784
1437.847500,1848
1437.848000,1925
1437.848500,1966
1437.849000,1990
1437.849500,1958
1437.850000,1862
1437.850500,1775
1437.851000,1683
1437.851500,1638
1437.852000,1637
1437.852500,1644
1437.853000,1680
1437.853500,1695
1437.854000,1707
1437.854500,1701
1437.855000,1708
1437.855500,1739
1437.856000,1764
1437.856500,1766
1437.857000,1791
1437.857500,1817
1437.858000,1843
1437.858500,1844
1437.859000,1851
1437.859500,1857
1437.860000,1877
1437.860500,1843
1437.861000,1778
1437.861500,1742
1437.862000,1787
1437.862500,1815
1437.863000,1813
1437.863500,1795
1437.864000,1753
1437.864500,1710
1437.865000,1712
1437.865500,1739
1437.866000,1765
1437.866500,1785
1437.867000,1781
1437.867500,1772
1437.868000,1809
1437.868500,1850
1437.869000,1886
1437.869500,1917
1437.870000,1930
1437.870500,1946
1437.871000,1934
1437.871500,1934
1437.872000,1877
1437.872500,1858
1437.873000,1825
1437.873500,1778
1437.874000,1768
1437.874500,1789
1437.875000,1841
1437.875500,1813
1437.876000,1725
1437.876500,1639
1437.877000,1602
1437.877500,1628
1437.878000,1705
1437.878500,1729
1437.879000,1706
1437.879500,1703
1437.880000,1707
1437.880500,1715
1437.881000,1782
1437.881500,1837
1437.882000,1899
1437.882500,1942
1437.883000,1915
1437.883500,1851
1437.884000,1722
1437.884500,1611
1437.885000,1620
1437.885500,1753
1437.886000,1861
1437.886500,1885
1437.887000,1836
1437.887500,1798
1437.888000,1763
1437.888500,1757
1437.889000,1763
1437.889500,1782
1437.890000,1820
1437.890500,1819
1437.891000,1818
1437.891500,1832
1437.892000,1838
1437.892500,1836
1437.893000,1809
1437.893500,1822
1437.894000,1843
1437.894500,1916
1437.895000,1922
1437.895500,1897
1437.896000,1890
1437.896500,1908
1437.897000,1874
1437.897500,1771
1437.898000,1621
1437.898500,1504
1437.899000,1527
1437.899500,1679
1437.900000,1760
1437.900500,1763
1437.901000,1751
1437.901500,1764
1437.902000,1771
1437.902500,1801
1437.903000,1801
1437.903500,1800
1437.904000,1819
1437.904500,1820
1437.905000,1810
1437.905500,1788
1437.906000,1756
1437.906500,1744
1437.907000,1754
1437.907500,1768
1437.908000,1780
1437.908500,1767
1437.909000,1736
1437.909500,1767
1437.910000,1838
1437.910500,1892
1437.911000,1926
1437.911500,1908
1437.912000,1853
1437.912500,1771
1437.913000,1734
1437.913500,1741
1437.914000,1745
1437.914500,1760
1437.915000,1752
1437.915500,1778
1437.916000,1822
1437.916500,1832
1437.917000,1847
1437.917500,1837
1437.918000,1844
1437.918500,1809
1437.919000,1761
1437.919500,1750
1437.920000,1782
1437.920500,1826
1437.921000,1897
1437.921500,1945
1437.922000,1952
1437.922500,1941
1437.923000,1937
1437.923500,1926
1437.924000,1859
1437.924500,1808
1437.925000,1758
1437.925500,1678
1437.926000,1663
1437.926500,1675
1437.927000,1656
1437.927500,1607
1437.928000,1638
1437.928500,1763
1437.929000,1828
1437.929500,1815
1437.930000,1782
1437.930500,1762
1437.931000,1734
1437.931500,1692
1437.932000,1655
1437.932500,1657
1437.933000,1705
1437.933500,1772
1437.934000,1847
1437.934500,1900
1437.935000,1907
1437.935500,1884
1437.936000,1922
1437.936500,2044
1437.937000,2080
1437.937500,2078
1437.938000,2039
1437.938500,1931
1437.939000,1743
1437.939500,1565
1437.940000,1459
1437.940500,1476
1437.941000,1518
1437.941500,1571
1437.942000,1656
1437.942500,1703
1437.943000,1765
1437.943500,1815
1437.944000,1799
1437.944500,1749
1437.945000,1734
1437.945500,1736
1437.946000,1761
1437.946500,1796
1437.947000,1834
1437.947500,1838
1437.948000,1877
1437.948500,1897
1437.949000,1933
1437.949500,1910
1437.950000,1887
1437.950500,1847
1437.951000,1802
1437.951500,1796
1437.952000,1756
1437.952500,1691
1437.953000,1666
1437.953500,1692
1437.954000,1724
1437.954500,1758
1437.955000,1781
1437.955500,1782
1437.956000,1785
1437.956500,1797
1437.957000,1818
1437.957500,1858
1437.958000,1872
1437.958500,1864
1437.959000,1834
1437.959500,1785
1437.960000,1742
1437.960500,1702
1437.961000,1728
1437.961500,1779
1437.962000,1797
1437.962500,1801
1437.963000,1802
1437.963500,1810
1437.964000,1807
1437.964500,1800
1437.965000,1783
1437.965500,1759
1437.966000,1751
1437.966500,1739
1437.967000,1752
1437.967500,1783
1437.968000,1821
1437.968500,1850
1437.969000,1877
1437.969500,1925
1437.970000,1998
1437.970500,2010
1437.971000,1938
1437.971500,1863
1437.972000,1869
1437.972500,1891
1437.973000,1876
1437.973500,1818
1437.974000,1749
1437.974500,1697
1437.975000,1675
1437.975500,1680
1437.976000,1692
1437.976500,1697
1437.977000,1696
1437.977500,1735
1437.978000,1723
1437.978500,1728
1437.979000,1732
1437.979500,1746
1437.980000,1750
1437.980500,1771
1437.981000,1778
1437.981500,1767
1437.982000,1791
1437.982500,1822
1437.983000,1815
1437.983500,1803
1437.984000,1769
1437.984500,1752
1437.985000,1751
1437.985500,1743
1437.986000,1753
1437.986500,1782
1437.987000,1812
1437.987500,1907
1437.988000,1990
1437.988500,2064
1437.989000,2066
1437.989500,2033
1437.990000,1995
1437.990500,1930
1437.991000,1841
1437.991500,1792
1437.992000,1722
1437.992500,1675
1437.993000,1629
1437.993500,1586
1437.994000,1572
1437.994500,1630
1437.995000,1697
1437.995500,1761
1437.996000,1766
1437.996500,1780
1437.997000,1745
1437.997500,1692
1437.998000,1691
1437.998500,1748
1437.999000,1789
1437.999500,1788
1438.000000,1782
1438.000500,1796
1438.001000,1790
1438.001500,1827
1438.002000,1838
1438.002500,1809
1438.003000,1767
1438.003500,1750
1438.004000,1779
1438.004500,1798
1438.005000,1801
1438.005500,1818
1438.006000,1850
1438.006500,1838
1438.007000,1813
1438.007500,1791
1438.008000,1753
1438.008500,1752
1438.009000,1799
1438.009500,1825
1438.010000,1824
1438.010500,1812
1438.011000,1769
1438.011500,1714
1438.012000,1691
1438.012500,1702
1438.013000,1740
1438.013500,1789
1438.014000,1811
1438.014500,1813
1438.015000,1825
1438.015500,1824
1438.016000,1854
1438.016500,1837
1438.017000,1831
1438.017500,1847
1438.018000,1832
1438.018500,1805
1438.019000,1785
1438.019500,1790
1438.020000,1821
1438.020500,1836
1438.021000,1822
1438.021500,1810
1438.022000,1800
1438.022500,1775
1438.023000,1778
1438.023500,1776
1438.024000,1811
1438.024500,1850
1438.025000,1835
1438.025500,1807
1438.026000,1785
1438.026500,1821
1438.027000,1868
1438.027500,1903
1438.028000,1919
1438.028500,1862
1438.029000,1762
1438.029500,1667
1438.030000,1566
1438.030500,1544
1438.031000,1652
1438.031500,1767
1438.032000,1823
1438.032500,1838
1438.033000,1836
1438.033500,1840
1438.034000,1846
1438.034500,1954
1438.035000,2049
1438.035500,2121
1438.036000,2149
1438.036500,2083
1438.037000,1924
1438.037500,1755
1438.038000,1651
1438.038500,1557
1438.039000,1493
1438.039500,1483
1438.040000,1546
1438.040500,1623
1438.041000,1676
1438.041500,1710
1438.042000,1728
1438.042500,1718
1438.043000,1716
1438.043500,1747
1438.044000,1794
1438.044500,1794
1438.045000,1815
1438.045500,1839
1438.046000,1818
1438.046500,1808
1438.047000,1804
1438.047500,1791
1438.048000,1830
1438.048500,1823
1438.049000,1806
1438.049500,1777
1438.050000,1737
1438.050500,1705
1438.051000,1658
1438.051500,1668
1438.052000,1752
1438.052500,1837
1438.053000,1854
1438.053500,1837
1438.054000,1838
1438.054500,1807
1438.055000,1766
1438.055500,1735
1438.056000,1703
1438.056500,1686
1438.057000,1679
1438.057500,1704
1438.058000,1741
1438.058500,1818
1438.059000,1886
1438.059500,1946
1438.060000,1987
1438.060500,1993
1438.061000,1981
1438.061500,1918
1438.062000,1825
1438.062500,1774
1438.063000,1789
1438.063500,1820
1438.064000,1832
1438.064500,1808
1438.065000,1765
1438.065500,1736
1438.066000,1728
1438.066500,1748
1438.067000,1818
1438.067500,1904
1438.068000,1967
1438.068500,1974
1438.069000,1905
1438.069500,1776
1438.070000,1673
1438.070500,1619
1438.071000,1601
1438.071500,1579
1438.072000,1629
1438.072500,1730
1438.073000,1777
1438.073500,1801
1438.074000,1846
1438.074500,1916
1438.075000,1967
1438.075500,1973
1438.076000,1907
1438.076500,1746
1438.077000,1581
1438.077500,1571
1438.078000,1672
1438.078500,1765
1438.079000,1816
1438.079500,1873
1438.080000,1912
1438.080500,1903
1438.081000,1852
1438.081500,1799
1438.082000,1770
1438.082500,1764
1438.083000,1761
1438.083500,1765
1438.084000,1788
1438.084500,1823
1438.085000,1844
1438.085500,1818
1438.086000,1801
1438.086500,1798
1438.087000,1798
1438.087500,1809
1438.088000,1873
1438.088500,1929
1438.089000,1933
1438.089500,1925
1438.090000,1890
1438.090500,1769
1438.091000,1633
1438.091500,1618
1438.092000,1627
1438.092500,1664
1438.093000,1730
1438.093500,1737
1438.094000,1723
1438.094500,1692
1438.095000,1740
1438.095500,1802
1438.096000,1820
1438.096500,1786
1438.097000,1745
1438.097500,1735
1438.098000,1806
1438.098500,1837
1438.099000,1808
1438.099500,1775
1438.100000,1771
1438.100500,1750
1438.101000,1750
1438.101500,1741
1438.102000,1769
1438.102500,1790
1438.103000,1801
1438.103500,1794
1438.104000,1812
1438.104500,1836
1438.105000,1854
1438.105500,1871
1438.106000,1848
1438.106500,1843
1438.107000,1826
1438.107500,1783
1438.108000,1789
1438.108500,1852
1438.109000,1906
1438.109500,1963
1438.110000,1990
1438.110500,1975
1438.111000,1897
1438.111500,1730
1438.112000,1514
1438.112500,1473
1438.113000,1577
1438.113500,1664
1438.114000,1702
1438.114500,1723
1438.115000,1769
1438.115500,1829
1438.116000,1936
1438.116500,1956
1438.117000,1921
1438.117500,1868
1438.118000,1840
1438.118500,1803
1438.119000,1744
1438.119500,1733
1438.120000,1782
1438.120500,1885
1438.121000,1975
1438.121500,1952
1438.122000,1869
1438.122500,1779
1438.123000,1727
1438.123500,1654
1438.124000,1606
1438.124500,1610
1438.125000,1629
1438.125500,1656
1438.126000,1729
1438.126500,1763
1438.127000,1780
1438.127500,1775
1438.128000,1774
1438.128500,1773
1438.129000,1764
1438.129500,1773
1438.130000,1804
1438.130500,1797
1438.131000,1808
1438.131500,1814
1438.132000,1804
1438.132500,1807
1438.133000,1836
1438.133500,1838
1438.134000,1861
1438.134500,1870
1438.135000,1895
1438.135500,1865
1438.136000,1809
1438.136500,1757
1438.137000,1722
1438.137500,1704
1438.138000,1734
1438.138500,1744
1438.139000,1735
1438.139500,1718
1438.140000,1743
1438.140500,1774
1438.141000,1818
1438.141500,1852
1438.142000,1886
1438.142500,1900
1438.143000,1871
1438.143500,1823
1438.144000,1797
1438.144500,1811
1438.145000,1838
1438.145500,1842
1438.146000,1850
1438.146500,1854
1438.147000,1888
1438.147500,1888
1438.148000,1853
1438.148500,1820
1438.149000,1862
1438.149500,1905
1438.150000,1898
1438.150500,1919
1438.151000,1914
1438.151500,1900
1438.152000,1849
1438.152500,1742
1438.153000,1572
1438.153500,1443
1438.154000,1434
1438.154500,1517
1438.155000,1600
1438.155500,1696
1438.156000,1775
1438.156500,1801
1438.157000,1832
1438.157500,1878
1438.158000,1894
1438.158500,1908
1438.159000,1905
1438.159500,1870
1438.160000,1821
1438.160500,1810
1438.161000,1805
1438.161500,1863
1438.162000,1907
1438.162500,1883
1438.163000,1783
1438.163500,1659
1438.164000,1616
1438.164500,1713
1438.165000,1777
1438.165500,1783
1438.166000,1768
1438.166500,1784
1438.167000,1808
1438.167500,1809
1438.168000,1754
1438.168500,1693
1438.169000,1688
1438.169500,1691
1438.170000,1699
1438.170500,1726
1438.171000,1758
1438.171500,1760
1438.172000,1772
1438.172500,1770
1438.173000,1760
1438.173500,1746
1438.174000,1749
1438.174500,1782
1438.175000,1883
1438.175500,1966
1438.176000,1992
1438.176500,1976
1438.177000,1950
1438.177500,1938
1438.178000,1937
1438.178500,1878
1438.179000,1786
1438.179500,1706
1438.180000,1660
1438.180500,1600
1438.181000,1634
1438.181500,1734
1438.182000,1811
1438.182500,1899
1438.183000,1947
1438.183500,1958
1438.184000,1875
1438.184500,1769
1438.185000,1691
1438.185500,1637
1438.186000,1626
1438.186500,1618
1438.187000,1666
1438.187500,1707
1438.188000,1685
1438.188500,1705
1438.189000,1771
1438.189500,1819
1438.190000,1833
1438.190500,1873
1438.191000,1900
1438.191500,1886
1438.192000,1880
1438.192500,1849
1438.193000,1816
1438.193500,1760
1438.194000,1711
1438.194500,1706
1438.195000,1724
1438.195500,1752
1438.196000,1766
1438.196500,1780
1438.197000,1808
1438.197500,1804
1438.198000,1801
1438.198500,1819
1438.199000,1850
1438.199500,1857
1438.200000,1853
1438.200500,1832
1438.201000,1776
1438.201500,1750
1438.202000,1754
1438.202500,1776
1438.203000,1810
1438.203500,1819
1438.204000,1807
1438.204500,1775
1438.205000,1748
1438.205500,1725
1438.206000,1713
1438.206500,1740
1438.207000,1751
1438.207500,1764
1438.208000,1767
1438.208500,1773
1438.209000,1825
1438.209500,1858
1438.210000,1864
1438.210500,1881
1438.211000,1887
1438.211500,1855
1438.212000,1834
1438.212500,1798
1438.213000,1788
1438.213500,1811
1438.214000,1844
1438.214500,1880
1438.215000,1873
1438.215500,1824
1438.216000,1767
1438.216500,1766
1438.217000,1802
1438.217500,1883
1438.218000,1913
1438.218500,1892
1438.219000,1842
1438.219500,1799
1438.220000,1749
1438.220500,1726
1438.221000,1742
1438.221500,1753
1438.222000,1703
1438.222500,1661
1438.223000,1669
1438.223500,1704
1438.224000,1702
1438.224500,1785
1438.225000,1892
1438.225500,1905
1438.226000,1885
1438.226500,1847
1438.227000,1814
1438.227500,1775
1438.228000,1731
1438.228500,1744
1438.229000,1780
1438.229500,1777
1438.230000,1719
1438.230500,1681
1438.231000,1732
1438.231500,1807
1438.232000,1813
1438.232500,1852
1438.233000,1844
1438.233500,1810
1438.234000,1778
1438.234500,1763
1438.235000,1781
1438.235500,1784
1438.236000,1796
1438.236500,1797
1438.237000,1783
1438.237500,1794
1438.238000,1817
1438.238500,1787
1438.239000,1767
1438.239500,1759
1438.240000,1741
1438.240500,1721
1438.241000,1739
1438.241500,1759
1438.242000,1771
1438.242500,1775
1438.243000,1763
1438.243500,1749
1438.244000,1757
1438.244500,1757
1438.245000,1751
1438.245500,1735
1438.246000,1722
1438.246500,1734
1438.247000,1750
1438.247500,1804
1438.248000,1855
1438.248500,1886
1438.249000,1896
1438.249500,1896
1438.250000,1902
1438.250500,1896
1438.251000,1842
1438.251500,1769
1438.252000,1718
1438.252500,1700
1438.253000,1712
1438.253500,1708
1438.254000,1711
1438.254500,1727
1438.255000,1775
1438.255500,1828
1438.256000,1855
1438.256500,1838
1438.257000,1837
1438.257500,1825
1438.258000,1843
1438.258500,1880
1438.259000,1946
1438.259500,2009
1438.260000,2062
1438.260500,2064
1438.261000,2000
1438.261500,1843
1438.262000,1638
1438.262500,1540
1438.263000,1562
1438.263500,1678
1438.264000,1801
1438.264500,1863
1438.265000,1843
1438.265500,1823
1438.266000,1825
1438.266500,1844
1438.267000,1857
1438.267500,1835
1438.268000,1758
1438.268500,1669
1438.269000,1621
1438.269500,1624
1438.270000,1641
1438.270500,1688
1438.271000,1717
1438.271500,1722
1438.272000,1736
1438.272500,1752
1438.273000,1782
1438.273500,1863
1438.274000,2005
1438.274500,2076
1438.275000,2064
1438.275500,1998
1438.276000,1963
1438.276500,1921
1438.277000,1825
1438.277500,1690
1438.278000,1654
1438.278500,1637
1438.279000,1621
1438.279500,1611
1438.280000,1653
1438.280500,1706
1438.281000,1766
1438.281500,1806
1438.282000,1797
1438.282500,1778
1438.283000,1770
1438.283500,1787
1438.284000,1794
1438.284500,1795
1438.285000,1795
1438.285500,1829
1438.286000,1814
1438.286500,1790
1438.287000,1770
1438.287500,1721
1438.288000,1652
1438.288500,1656
1438.289000,1705
1438.289500,1786
1438.290000,1818
1438.290500,1851
1438.291000,1850
1438.291500,1836
1438.292000,1831
1438.292500,1806
1438.293000,1773
1438.293500,1732
1438.294000,1724
1438.294500,1747
1438.295000,1818
1438.295500,1845
1438.296000,1858
1438.296500,1877
1438.297000,1886
1438.297500,1872
1438.298000,1838
1438.298500,1828
1438.299000,1793
1438.299500,1789
1438.300000,1883
1438.300500,1954
1438.301000,1990
1438.301500,1977
1438.302000,1988
1438.302500,1924
1438.303000,1803
1438.303500,1634
1438.304000,1503
1438.304500,1505
1438.305000,1607
1438.305500,1667
1438.306000,1677
1438.306500,1688
1438.307000,1733
1438.307500,1759
1438.308000,1783
1438.308500,1781
1438.309000,1758
1438.309500,1701
1438.310000,1653
1438.310500,1628
1438.311000,1646
1438.311500,1720
1438.312000,1775
1438.312500,1863
1438.313000,1937
1438.313500,1938
1438.314000,1888
1438.314500,1859
1438.315000,1849
1438.315500,1868
1438.316000,1857
1438.316500,1847
1438.317000,1862
1438.317500,1830
1438.318000,1828
1438.318500,1817
1438.319000,1784
1438.319500,1753
1438.320000,1768
1438.320500,1780
1438.321000,1795
1438.321500,1805
1438.322000,1794
1438.322500,1782
1438.323000,1762
1438.323500,1793
1438.324000,1835
1438.324500,1817
1438.325000,1827
1438.325500,1848
1438.326000,1818
1438.326500,1780
1438.327000,1790
1438.327500,1816
1438.328000,1805
1438.328500,1747
1438.329000,1682
1438.329500,1704
1438.330000,1844
1438.330500,1908
1438.331000,1903
1438.331500,1855
1438.332000,1776
1438.332500,1707
1438.333000,1679
1438.333500,1721
1438.334000,1734
1438.334500,1757
1438.335000,1785
1438.335500,1817
1438.336000,1855
1438.336500,1910
1438.337000,1935
1438.337500,1911
1438.338000,1857
1438.338500,1823
1438.339000,1797
1438.339500,1726
1438.340000,1678
1438.340500,1808
1438.341000,1985
1438.341500,2008
1438.342000,1994
1438.342500,1933
1438.343000,1809
1438.343500,1630
1438.344000,1502
1438.344500,1513
1438.345000,1566
1438.345500,1619
1438.346000,1701
1438.346500,1730
1438.347000,1740
1438.347500,1731
1438.348000,1763
1438.348500,1795
1438.349000,1794
1438.349500,1801
1438.350000,1789
1438.350500,1810
1438.351000,1887
1438.351500,1953
1438.352000,1952
1438.352500,1899
1438.353000,1873
1438.353500,1919
1438.354000,1915
1438.354500,1917
1438.355000,1862
1438.355500,1804
1438.356000,1803
1438.356500,1806
1438.357000,1718
1438.357500,1653
1438.358000,1673
1438.358500,1743
1438.359000,1727
1438.359500,1784
1438.360000,1824
1438.360500,1836
1438.361000,1791
1438.361500,1710
1438.362000,1623
1438.362500,1585
1438.363000,1591
1438.363500,1665
1438.364000,1725
1438.364500,1749
1438.365000,1778
1438.365500,1780
1438.366000,1763
1438.366500,1744
1438.367000,1750
1438.367500,1771
1438.368000,1794
1438.368500,1793
1438.369000,1831
1438.369500,1815
1438.370000,1810
1438.370500,1805
1438.371000,1815
1438.371500,1787
1438.372000,1810
1438.372500,1820
1438.373000,1810
1438.373500,1763
1438.374000,1804
1438.374500,1890
1438.375000,1937
1438.375500,1950
1438.376000,1899
1438.376500,1805
1438.377000,1703
1438.377500,1643
1438.378000,1686
1438.378500,1750
1438.379000,1778
1438.379500,1819
1438.380000,1847
1438.380500,1886
1438.381000,1913
1438.381500,1927
1438.382000,1918
1438.382500,1870
1438.383000,1847
1438.383500,1848
1438.384000,1847
1438.384500,1842
1438.385000,1808
1438.385500,1776
1438.386000,1756
1438.386500,1739
1438.387000,1702
1438.387500,1666
1438.388000,1646
1438.388500,1668
1438.389000,1704
1438.389500,1713
1438.390000,1731
1438.390500,1755
1438.391000,1786
1438.391500,1858
1438.392000,1917
1438.392500,1982
1438.393000,2013
1438.393500,2014
1438.394000,1976
1438.394500,1883
1438.395000,1797
1438.395500,1733
1438.396000,1709
1438.396500,1722
1438.397000,1750
1438.397500,1747
1438.398000,1708
1438.398500,1674
1438.399000,1679
1438.399500,1726
1438.400000,1765
1438.400500,1776
1438.401000,1748
1438.401500,1773
1438.402000,1759
1438.402500,1756
1438.403000,1754
1438.403500,1772
1438.404000,1822
1438.404500,1847
1438.405000,1852
1438.405500,1847
1438.406000,1827
1438.406500,1764
1438.407000,1698
1438.407500,1720
1438.408000,1769
1438.408500,1806
1438.409000,1816
1438.409500,1806
1438.410000,1784
1438.410500,1764
1438.411000,1744
1438.411500,1727
1438.412000,1744
1438.412500,1797
1438.413000,1858
1438.413500,1856
1438.414000,1851
1438.414500,1837
1438.415000,1828
1438.415500,1871
1438.416000,1875
1438.416500,1873
1438.417000,1873
1438.417500,1820
1438.418000,1729
1438.418500,1701
1438.419000,1756
1438.419500,1850
1438.420000,1885
1438.420500,1883
1438.421000,1829
1438.421500,1729
1438.422000,1672
1438.422500,1686
1438.423000,1691
1438.423500,1680
1438.424000,1676
1438.424500,1745
1438.425000,1792
1438.425500,1826
1438.426000,1856
1438.426500,1865
1438.427000,1843
1438.427500,1818
1438.428000,1828
1438.428500,1772
1438.429000,1823
1438.429500,1799
1438.430000,1760
1438.430500,1729
1438.431000,1744
1438.431500,1767
1438.432000,1776
1438.432500,1778
1438.433000,1786
1438.433500,1769
1438.434000,1736
1438.434500,1713
1438.435000,1715
1438.435500,1714
1438.436000,1728
1438.436500,1733
1438.437000,1715
1438.437500,1725
1438.438000,1721
1438.438500,1761
1438.439000,1803
1438.439500,1883
1438.440000,1929
1438.440500,1924
1438.441000,1889
1438.441500,1829
1438.442000,1781
1438.442500,1749
1438.443000,1762
1438.443500,1808
1438.444000,1829
1438.444500,1858
1438.445000,1848
1438.445500,1788
1438.446000,1758
1438.446500,1770
1438.447000,1777
1438.447500,1755
1438.448000,1743
1438.448500,1789
1438.449000,1812
1438.449500,1830
1438.450000,1832
1438.450500,1829
1438.451000,1848
1438.451500,1877
1438.452000,1886
1438.452500,1866
1438.453000,1881
1438.453500,1869
1438.454000,1828
1438.454500,1770
1438.455000,1741
1438.455500,1728
1438.456000,1725
1438.456500,1722
1438.457000,1722
1438.457500,1740
1438.458000,1766
1438.458500,1819
1438.459000,1837
1438.459500,1859
1438.460000,1893
1438.460500,1875
1438.461000,1842
1438.461500,1780
1438.462000,1749
1438.462500,1756
1438.463000,1778
1438.463500,1779
1438.464000,1781
1438.464500,1776
1438.465000,1858
1438.465500,1836
1438.466000,1793
1438.466500,1761
1438.467000,1739
1438.467500,1716
1438.468000,1777
1438.468500,1831
1438.469000,1790
1438.469500,1754
1438.470000,1761
1438.470500,1744
1438.471000,1702
1438.471500,1677
1438.472000,1698
1438.472500,1711
1438.473000,1792
1438.473500,1884
1438.474000,1934
1438.474500,1950
1438.475000,1909
1438.475500,1831
1438.476000,1770
1438.476500,1765
1438.477000,1800
1438.477500,1794
1438.478000,1760
1438.478500,1718
1438.479000,1735
1438.479500,1726
1438.480000,1774
1438.480500,1803
1438.481000,1766
1438.481500,1704
1438.482000,1653
1438.482500,1657
1438.483000,1688
1438.483500,1730
1438.484000,1778
1438.484500,1849
1438.485000,1942
1438.485500,1943
1438.486000,1939
1438.486500,1919
1438.487000,1888
1438.487500,1841
1438.488000,1789
1438.488500,1719
1438.489000,1686
1438.489500,1702
1438.490000,1702
1438.490500,1716
1438.491000,1758
1438.491500,1822
1438.492000,1847
1438.492500,1844
1438.493000,1809
1438.493500,1798
1438.494000,1832
1438.494500,1861
1438.495000,1851
1438.495500,1863
1438.496000,1848
1438.496500,1802
1438.497000,1726
1438.497500,1729
1438.498000,1728
1438.498500,1741
1438.499000,1766
1438.499500,1819
1438.500000,1896
1438.500500,1936
1438.501000,1949
1438.501500,1944
1438.502000,1912
1438.502500,1844
1438.503000,1754
1438.503500,1597
1438.504000,1488
1438.504500,1539
1438.505000,1677
1438.505500,1727
1438.506000,1713
1438.506500,1734
1438.507000,1773
1438.507500,1786
1438.508000,1785
1438.508500,1807
1438.509000,1823
1438.509500,1830
1438.510000,1818
1438.510500,1828
1438.511000,1821
1438.511500,1809
1438.512000,1821
1438.512500,1830
1438.513000,1820
1438.513500,1803
1438.514000,1783
1438.514500,1757
1438.515000,1749
1438.515500,1778
1438.516000,1805
1438.516500,1790
1438.517000,1783
1438.517500,1799
1438.518000,1782
1438.518500,1769
1438.519000,1761
1438.519500,1775
1438.520000,1786
1438.520500,1810
1438.521000,1826
1438.521500,1827
1438.522000,1836
1438.522500,1835
1438.523000,1829
1438.523500,1796
1438.524000,1773
1438.524500,1758
1438.525000,1789
1438.525500,1863
1438.526000,1938
1438.526500,1981
1438.527000,1980
1438.527500,1960
1438.528000,1877
1438.528500,1716
1438.529000,1615
1438.529500,1681
1438.530000,1753
1438.530500,1838
1438.531000,1921
1438.531500,1937
1438.532000,1915
1438.532500,1855
1438.533000,1752
1438.533500,1704
1438.534000,1708
1438.534500,1723
1438.535000,1731
1438.535500,1723
1438.536000,1659
1438.536500,1609
1438.537000,1629
1438.537500,1717
1438.538000,1768
1438.538500,1818
1438.539000,1878
1438.539500,1878
1438.540000,1818
1438.540500,1782
1438.541000,1776
1438.541500,1734
1438.542000,1723
1438.542500,1729
1438.543000,1713
1438.543500,1686
1438.544000,1696
1438.544500,1744
1438.545000,1808
1438.545500,1860
1438.546000,1890
1438.546500,1886
1438.547000,1844
1438.547500,1833
1438.548000,1796
1438.548500,1787
1438.549000,1830
1438.549500,1866
1438.550000,1862
1438.550500,1846
1438.551000,1819
1438.551500,1813
1438.552000,1817
1438.552500,1869
1438.553000,1912
1438.553500,1911
1438.554000,1858
1438.554500,1765
1438.555000,1700
1438.555500,1673
1438.556000,1666
1438.556500,1675
1438.557000,1724
1438.557500,1738
1438.558000,1754
1438.558500,1773
1438.559000,1786
1438.559500,1784
1438.560000,1784
1438.560500,1793
1438.561000,1779
1438.561500,1777
1438.562000,1792
1438.562500,1782
1438.563000,1722
1438.563500,1671
1438.564000,1734
1438.564500,1860
1438.565000,1895
1438.565500,1878
1438.566000,1862
1438.566500,1854
1438.567000,1810
1438.567500,1753
1438.568000,1715
1438.568500,1743
1438.569000,1755
1438.569500,1776
1438.570000,1778
1438.570500,1791
1438.571000,1784
1438.571500,1780
1438.572000,1783
1438.572500,1802
1438.573000,1813
1438.573500,1822
1438.574000,1824
1438.574500,1805
1438.575000,1774
1438.575500,1731
1438.576000,1718
1438.576500,1754
1438.577000,1791
1438.577500,1804
1438.578000,1793
1438.578500,1768
1438.579000,1754
1438.579500,1750
1438.580000,1768
1438.580500,1758
1438.581000,1763
1438.581500,1800
1438.582000,1831
1438.582500,1824
1438.583000,1819
1438.583500,1811
1438.584000,1811
1438.584500,1806
1438.585000,1832
1438.585500,1895
1438.586000,1930
1438.586500,1921
1438.587000,1865
1438.587500,1888
1438.588000,1847
1438.588500,1810
1438.589000,1794
1438.589500,1799
1438.590000,1823
1438.590500,1836
1438.591000,1860
1438.591500,1870
1438.592000,1830
1438.592500,1804
1438.593000,1742
1438.593500,1703
1438.594000,1704
1438.594500,1727
1438.595000,1742
1438.595500,1771
1438.596000,1816
1438.596500,1888
1438.597000,1891
1438.597500,1855
1438.598000,1816
1438.598500,1790
1438.599000,1720
1438.599500,1662
1438.600000,1618
1438.600500,1620
1438.601000,1635
1438.601500,1635
1438.602000,1668
1438.602500,1712
1438.603000,1780
1438.603500,1805
1438.604000,1794
1438.604500,1767
1438.605000,1753
1438.605500,1786
1438.606000,1857
1438.606500,1978
1438.607000,2060
1438.607500,2036
1438.608000,1924
1438.608500,1784
1438.609000,1629
1438.609500,1571
1438.610000,1660
1438.610500,1774
1438.611000,1849
1438.611500,1840
1438.612000,1821
1438.612500,1820
1438.613000,1805
1438.613500,1766
1438.614000,1747
1438.614500,1738
1438.615000,1742
1438.615500,1760
1438.616000,1807
1438.616500,1822
1438.617000,1830
1438.617500,1829
1438.618000,1771
1438.618500,1696
1438.619000,1658
1438.619500,1702
1438.620000,1803
1438.620500,1806
1438.621000,1798
1438.621500,1757
1438.622000,1739
1438.622500,1751
1438.623000,1772
1438.623500,1784
1438.624000,1790
1438.624500,1795
1438.625000,1767
1438.625500,1761
1438.626000,1777
1438.626500,1827
1438.627000,1860
1438.627500,1900
1438.628000,1915
1438.628500,1891
1438.629000,1852
1438.629500,1813
1438.630000,1816
1438.630500,1781
1438.631000,1762
1438.631500,1750
1438.632000,1750
1438.632500,1745
1438.633000,1781
1438.633500,1802
1438.634000,1812
1438.634500,1812
1438.635000,1794
1438.635500,1787
1438.636000,1792
1438.636500,1805
1438.637000,1799
1438.637500,1812
1438.638000,1816
1438.638500,1784
1438.639000,1744
1438.639500,1737
1438.640000,1776
1438.640500,1836
1438.641000,1884
1438.641500,1897
1438.642000,1892
1438.642500,1863
1438.643000,1799
1438.643500,1743
1438.644000,1721
1438.644500,1730
1438.645000,1770
1438.645500,1838
1438.646000,1865
1438.646500,1888
1438.647000,1873
1438.647500,1811
1438.648000,1780
1438.648500,1726
1438.649000,1736
1438.649500,1733
1438.650000,1769
1438.650500,1785
1438.651000,1753
1438.651500,1714
1438.652000,1680
1438.652500,1687
1438.653000,1701
1438.653500,1738
1438.654000,1760
1438.654500,1753
1438.655000,1749
1438.655500,1751
1438.656000,1758
1438.656500,1774
1438.657000,1790
1438.657500,1791
1438.658000,1878
1438.658500,1944
1438.659000,2007
1438.659500,1997
1438.660000,2026
1438.660500,2015
1438.661000,2005
1438.661500,1980
1438.662000,1939
1438.662500,1847
1438.663000,1802
1438.663500,1751
1438.664000,1787
1438.664500,1751
1438.665000,1662
1438.665500,1650
1438.666000,1664
1438.666500,1636
1438.667000,1580
1438.667500,1578
1438.668000,1626
1438.668500,1674
1438.669000,1714
1438.669500,1713
1438.670000,1742
1438.670500,1750
1438.671000,1763
1438.671500,1783
1438.672000,1788
1438.672500,1798
1438.673000,1802
1438.673500,1795
1438.674000,1780
1438.674500,1761
1438.675000,1738
1438.675500,1739
1438.676000,1760
1438.676500,1780
1438.677000,1789
1438.677500,1782
1438.678000,1778
1438.678500,1794
1438.679000,1836
1438.679500,1863
1438.680000,1858
1438.680500,1821
1438.681000,1813
1438.681500,1789
1438.682000,1816
1438.682500,1800
1438.683000,1781
1438.683500,1767
1438.684000,1779
1438.684500,1793
1438.685000,1826
1438.685500,1852
1438.686000,1845
1438.686500,1818
1438.687000,1806
1438.687500,1787
1438.688000,1792
1438.688500,1762
1438.689000,1760
1438.689500,1774
1438.690000,1787
1438.690500,1782
1438.691000,1774
1438.691500,1784
1438.692000,1812
1438.692500,1895
1438.693000,1972
1438.693500,2016
1438.694000,2003
1438.694500,1964
1438.695000,1923
1438.695500,1838
1438.696000,1748
1438.696500,1664
1438.697000,1629
1438.697500,1667
1438.698000,1750
1438.698500,1802
1438.699000,1784
1438.699500,1771
1438.700000,1801
1438.700500,1814
1438.701000,1798
1438.701500,1829
1438.702000,1848
1438.702500,1852
1438.703000,1869
1438.703500,1922
1438.704000,1897
1438.704500,1766
1438.705000,1663
1438.705500,1653
1438.706000,1672
1438.706500,1662
1438.707000,1659
1438.707500,1658
1438.708000,1682
1438.708500,1714
1438.709000,1735
1438.709500,1757
1438.710000,1777
1438.710500,1804
1438.711000,1819
1438.711500,1823
1438.712000,1789
1438.712500,1740
1438.713000,1725
1438.713500,1722
1438.714000,1722
1438.714500,1742
1438.715000,1795
1438.715500,1835
1438.716000,1908
1438.716500,1912
1438.717000,1929
1438.717500,1949
1438.718000,1937
1438.718500,1910
1438.719000,1863
1438.719500,1785
1438.720000,1714
1438.720500,1704
1438.721000,1700
1438.721500,1718
1438.722000,1711
1438.722500,1721
1438.723000,1718
1438.723500,1725
1438.724000,1723
1438.724500,1699
1438.725000,1681
1438.725500,1716
1438.726000,1758
1438.726500,1778
1438.727000,1785
1438.727500,1780
1438.728000,1774
1438.728500,1802
1438.729000,1806
1438.729500,1805
1438.730000,1800
1438.730500,1798
1438.731000,1823
1438.731500,1837
1438.732000,1874
1438.732500,1914
1438.733000,1923
1438.733500,1910
1438.734000,1874
1438.734500,1864
1438.735000,1831
1438.735500,1778
1438.736000,1720
1438.736500,1703
1438.737000,1776
1438.737500,1871
1438.738000,1912
1438.738500,1893
1438.739000,1815
1438.739500,1716
1438.740000,1674
1438.740500,1663
1438.741000,1711
1438.741500,1743
1438.742000,1778
1438.742500,1818
1438.743000,1835
1438.743500,1851
1438.744000,1836
1438.744500,1820
1438.745000,1798
1438.745500,1799
1438.746000,1825
1438.746500,1862
1438.747000,1928
1438.747500,1950
1438.748000,1959
1438.748500,1944
1438.749000,1898
1438.749500,1796
1438.750000,1720
1438.750500,1734
1438.751000,1774
1438.751500,1779
1438.752000,1724
1438.752500,1662
1438.753000,1632
1438.753500,1632
1438.754000,1673
1438.754500,1790
1438.755000,1846
1438.755500,1871
1438.756000,1851
1438.756500,1794
1438.757000,1698
1438.757500,1597
1438.758000,1573
1438.758500,1632
1438.759000,1686
1438.759500,1736
1438.760000,1772
1438.760500,1783
1438.761000,1802
1438.761500,1815
1438.762000,1839
1438.762500,1848
1438.763000,1854
1438.763500,1828
1438.764000,1826
1438.764500,1857
1438.765000,1856
1438.765500,1858
1438.766000,1818
1438.766500,1800
1438.767000,1760
1438.767500,1722
1438.768000,1723
1438.768500,1731
1438.769000,1791
1438.769500,1852
1438.770000,1940
1438.770500,2043
1438.771000,2069
1438.771500,1995
1438.772000,1876
1438.772500,1766
1438.773000,1705
1438.773500,1695
1438.774000,1678
1438.774500,1654
1438.775000,1659
1438.775500,1682
1438.776000,1716
1438.776500,1726
1438.777000,1721
1438.777500,1699
1438.778000,1705
1438.778500,1719
1438.779000,1754
1438.779500,1767
1438.780000,1781
1438.780500,1801
1438.781000,1820
1438.781500,1942
1438.782000,2051
1438.782500,2043
1438.783000,1964
1438.783500,1852
1438.784000,1759
1438.784500,1692
1438.785000,1622
1438.785500,1587
1438.786000,1614
1438.786500,1677
1438.787000,1735
1438.787500,1761
1438.788000,1764
1438.788500,1790
1438.789000,1800
1438.789500,1802
1438.790000,1787
1438.790500,1765
1438.791000,1754
1438.791500,1738
1438.792000,1727
1438.792500,1718
1438.793000,1732
1438.793500,1764
1438.794000,1819
1438.794500,1853
1438.795000,1871
1438.795500,1855
1438.796000,1843
1438.796500,1887
1438.797000,1878
1438.797500,1867
1438.798000,1841
1438.798500,1825
1438.799000,1779
1438.799500,1777
1438.800000,1766
1438.800500,1756
1438.801000,1756
1438.801500,1764
1438.802000,1788
1438.802500,1805
1438.803000,1818
1438.803500,1821
1438.804000,1820
1438.804500,1817
1438.805000,1822
1438.805500,1816
1438.806000,1821
1438.806500,1809
1438.807000,1768
1438.807500,1764
1438.808000,1801
1438.808500,1847
1438.809000,1920
1438.809500,2008
1438.810000,2022
1438.810500,1948
1438.811000,1845
1438.811500,1814
1438.812000,1799
1438.812500,1708
1438.813000,1650
1438.813500,1654
1438.814000,1668
1438.814500,1666
1438.815000,1663
1438.815500,1679
1438.816000,1691
1438.816500,1700
1438.817000,1746
1438.817500,1773
1438.818000,1801
1438.818500,1831
1438.819000,1836
1438.819500,1810
1438.820000,1787
1438.820500,1771
1438.821000,1752
1438.821500,1768
1438.822000,1799
1438.822500,1832
1438.823000,1852
1438.823500,1856
1438.824000,1854
1438.824500,1844
1438.825000,1829
1438.825500,1833
1438.826000,1842
1438.826500,1870
1438.827000,1924
1438.827500,2010
1438.828000,1964
1438.828500,1861
1438.829000,1797
1438.829500,1819
1438.830000,1800
1438.830500,1763
1438.831000,1693
1438.831500,1619
1438.832000,1561
1438.832500,1529
1438.833000,1579
1438.833500,1622
1438.834000,1677
1438.834500,1701
1438.835000,1727
1438.835500,1747
1438.836000,1771
1438.836500,1779
1438.837000,1798
1438.837500,1822
1438.838000,1828
1438.838500,1811
1438.839000,1806
1438.839500,1812
1438.840000,1813
1438.840500,1809
1438.841000,1790
1438.841500,1785
1438.842000,1768
1438.842500,1795
1438.843000,1775
1438.843500,1787
1438.844000,1802
1438.844500,1814
1438.845000,1813
1438.845500,1808
1438.846000,1802
1438.846500,1765
1438.847000,1755
1438.847500,1771
1438.848000,1790
1438.848500,1812
1438.849000,1859
1438.849500,1917
1438.850000,1922
1438.850500,1970
1438.851000,2010
1438.851500,2002
1438.852000,1887
1438.852500,1824
1438.853000,1730
1438.853500,1649
1438.854000,1650
1438.854500,1707
1438.855000,1752
1438.855500,1768
1438.856000,1783
1438.856500,1783
1438.857000,1750
1438.857500,1743
1438.858000,1764
1438.858500,1752
1438.859000,1782
1438.859500,1835
1438.860000,1869
1438.860500,1881
1438.861000,1894
1438.861500,1898
1438.862000,1878
1438.862500,1860
1438.863000,1851
1438.863500,1831
1438.864000,1766
1438.864500,1696
1438.865000,1652
1438.865500,1641
1438.866000,1658
1438.866500,1694
1438.867000,1710
1438.867500,1721
1438.868000,1734
1438.868500,1746
1438.869000,1754
1438.869500,1797
1438.870000,1863
1438.870500,1875
1438.871000,1850
1438.871500,1867
1438.872000,1911
1438.872500,1908
1438.873000,1860
1438.873500,1813
1438.874000,1723
1438.874500,1655
1438.875000,1622
1438.875500,1665
1438.876000,1699
1438.876500,1711
1438.877000,1737
1438.877500,1772
1438.878000,1783
1438.878500,1776
1438.879000,1782
1438.879500,1814
1438.880000,1825
1438.880500,1825
1438.881000,1831
1438.881500,1849
1438.882000,1825
1438.882500,1803
1438.883000,1753
1438.883500,1757
1438.884000,1831
1438.884500,1904
1438.885000,1919
1438.885500,1910
1438.886000,1918
1438.886500,1915
1438.887000,1868
1438.887500,1772
1438.888000,1720
1438.888500,1717
1438.889000,1796
1438.889500,1774
1438.890000,1753
1438.890500,1730
1438.891000,1732
1438.891500,1738
1438.892000,1729
1438.892500,1766
1438.893000,1831
1438.893500,1858
1438.894000,1854
1438.894500,1828
1438.895000,1757
1438.895500,1638
1438.896000,1612
1438.896500,1684
1438.897000,1768
1438.897500,1837
1438.898000,1847
1438.898500,1846
1438.899000,1843
1438.899500,1847
1438.900000,1833
1438.900500,1825
1438.901000,1878
1438.901500,1876
1438.902000,1839
1438.902500,1770
1438.903000,1704
1438.903500,1701
1438.904000,1760
1438.904500,1894
1438.905000,1945
1438.905500,1970
1438.906000,1953
1438.906500,1867
1438.907000,1732
1438.907500,1592
1438.908000,1590
1438.908500,1715
1438.909000,1809
1438.909500,1809
1438.910000,1786
1438.910500,1794
1438.911000,1768
1438.911500,1728
1438.912000,1688
1438.912500,1663
1438.913000,1685
1438.913500,1701
1438.914000,1732
1438.914500,1761
1438.915000,1786
1438.915500,1794
1438.916000,1798
1438.916500,1822
1438.917000,1858
1438.917500,1861
1438.918000,1857
1438.918500,1863
1438.919000,1852
1438.919500,1826
1438.920000,1798
1438.920500,1759
1438.921000,1745
1438.921500,1748
1438.922000,1745
1438.922500,1749
1438.923000,1743
1438.923500,1742
1438.924000,1760
1438.924500,1806
1438.925000,1836
1438.925500,1822
1438.926000,1814
1438.926500,1827
1438.927000,1864
1438.927500,1879
1438.928000,1898
1438.928500,1894
1438.929000,1868
1438.929500,1847
1438.930000,1804
1438.930500,1744
1438.931000,1736
1438.931500,1726
1438.932000,1711
1438.932500,1714
1438.933000,1747
1438.933500,1763
1438.934000,1766
1438.934500,1783
1438.935000,1823
1438.935500,1842
1438.936000,1837
