# Subject: 
# Trial: 
# Notes: 
# Muscles: Ch1
# fs=2000 Hz, nch=1, vref=3.3 V
t_s,ch1_code
1080.800000,1792
1080.800500,1795
1080.801000,1782
1080.801500,1800
1080.802000,1791
1080.802500,1781
1080.803000,1773
1080.803500,1786
1080.804000,1791
1080.804500,1775
1080.805000,1771
1080.805500,1788
1080.806000,1774
1080.806500,1766
1080.807000,1779
1080.807500,1781
1080.808000,1769
1080.808500,1763
1080.809000,1778
1080.809500,1784
1080.810000,1763
1080.810500,1786
1080.811000,1782
1080.811500,1770
1080.812000,1766
1080.812500,1781
1080.813000,1788
1080.813500,1768
1080.814000,1766
1080.814500,1784
1080.815000,1773
1080.815500,1771
1080.816000,1785
1080.816500,1786
1080.817000,1776
1080.817500,1771
1080.818000,1787
1080.818500,1794
1080.819000,1778
1080.819500,1802
1080.820000,1796
1080.820500,1783
1080.821000,1778
1080.821500,1787
1080.822000,1795
1080.822500,1778
1080.823000,1775
1080.823500,1789
1080.824000,1777
1080.824500,1772
1080.825000,1782
1080.825500,1787
1080.826000,1777
1080.826500,1767
1080.827000,1782
1080.827500,1785
1080.828000,1762
1080.828500,1778
1080.829000,1778
1080.829500,1768
1080.830000,1759
1080.830500,1776
1080.831000,1782
1080.831500,1769
1080.832000,1764
1080.832500,1783
1080.833000,1786
1080.833500,1769
1080.834000,1771
1080.834500,1786
1080.835000,1777
1080.835500,1767
1080.836000,1782
1080.836500,1786
1080.837000,1768
1080.837500,1762
1080.838000,1784
1080.838500,1778
1080.839000,1769
1080.839500,1781
1080.840000,1786
1080.840500,1778
1080.841000,1774
1080.841500,1787
1080.842000,1793
1080.842500,1774
1080.843000,1775
1080.843500,1787
1080.844000,1778
1080.844500,1771
1080.845000,1784
1080.845500,1790
1080.846000,1773
1080.846500,1765
1080.847000,1780
1080.847500,1774
1080.848000,1768
1080.848500,1778
1080.849000,1782
1080.849500,1772
1080.850000,1765
1080.850500,1779
1080.851000,1784
1080.851500,1767
1080.852000,1787
1080.852500,1783
1080.853000,1771
1080.853500,1767
1080.854000,1777
1080.854500,1783
1080.855000,1770
1080.855500,1768
1080.856000,1786
1080.856500,1787
1080.857000,1767
1080.857500,1779
1080.858000,1787
1080.858500,1773
1080.859000,1769
1080.859500,1784
1080.860000,1790
1080.860500,1777
1080.861000,1773
1080.861500,1791
1080.862000,1780
1080.862500,1775
1080.863000,1786
1080.863500,1791
1080.864000,1777
1080.864500,1767
1080.865000,1786
1080.865500,1789
1080.866000,1772
1080.866500,1791
1080.867000,1782
1080.867500,1773
1080.868000,1766
1080.868500,1778
1080.869000,1784
1080.869500,1770
1080.870000,1766
1080.870500,1781
1080.871000,1761
1080.871500,1766
1080.872000,1778
1080.872500,1783
1080.873000,1772
1080.873500,1770
1080.874000,1781
1080.874500,1786
1080.875000,1771
1080.875500,1766
1080.876000,1783
1080.876500,1776
1080.877000,1768
1080.877500,1781
1080.878000,1786
1080.878500,1772
1080.879000,1771
1080.879500,1787
1080.880000,1795
1080.880500,1775
1080.881000,1787
1080.881500,1794
1080.882000,1783
1080.882500,1777
1080.883000,1789
1080.883500,1791
1080.884000,1777
1080.884500,1771
1080.885000,1789
1080.885500,1770
1080.886000,1773
1080.886500,1779
1080.887000,1787
1080.887500,1774
1080.888000,1766
1080.888500,1781
1080.889000,1784
1080.889500,1771
1080.890000,1765
1080.890500,1784
1080.891000,1775
1080.891500,1768
1080.892000,1779
1080.892500,1784
1080.893000,1773
1080.893500,1767
1080.894000,1782
1080.894500,1787
1080.895000,1766
1080.895500,1781
1080.896000,1785
1080.896500,1771
1080.897000,1766
1080.897500,1783
1080.898000,1788
1080.898500,1776
1080.899000,1771
1080.899500,1790
1080.900000,1788
1080.900500,1777
1080.901000,1791
1080.901500,1792
1080.902000,1780
1080.902500,1771
1080.903000,1788
1080.903500,1788
1080.904000,1771
1080.904500,1779
1080.905000,1789
1080.905500,1779
1080.906000,1773
1080.906500,1782
1080.907000,1786
1080.907500,1769
1080.908000,1764
1080.908500,1780
1080.909000,1775
1080.909500,1766
1080.910000,1774
1080.910500,1780
1080.911000,1770
1080.911500,1766
1080.912000,1780
1080.912500,1785
1080.913000,1768
1080.913500,1781
1080.914000,1783
1080.914500,1774
1080.915000,1769
1080.915500,1781
1080.916000,1790
1080.916500,1771
1080.917000,1770
1080.917500,1783
1080.918000,1776
1080.918500,1769
1080.919000,1783
1080.919500,1791
1080.920000,1777
1080.920500,1772
1080.921000,1790
1080.921500,1777
1080.922000,1774
1080.922500,1784
1080.923000,1791
1080.923500,1778
1080.924000,1769
1080.924500,1784
1080.925000,1790
1080.925500,1770
1080.926000,1768
1080.926500,1784
1080.927000,1774
1080.927500,1766
1080.928000,1779
1080.928500,1785
1080.929000,1771
1080.929500,1767
1080.930000,1783
1080.930500,1790
1080.931000,1771
1080.931500,1780
1080.932000,1784
1080.932500,1774
1080.933000,1766
1080.933500,1784
1080.934000,1788
1080.934500,1771
1080.935000,1763
1080.935500,1782
1080.936000,1776
1080.936500,1768
1080.937000,1781
1080.937500,1787
1080.938000,1773
1080.938500,1770
1080.939000,1790
1080.939500,1792
1080.940000,1776
1080.940500,1779
1080.941000,1790
1080.941500,1778
1080.942000,1771
1080.942500,1784
1080.943000,1790
1080.943500,1778
1080.944000,1772
1080.944500,1787
1080.945000,1778
1080.945500,1773
1080.946000,1784
1080.946500,1787
1080.947000,1773
1080.947500,1768
1080.948000,1780
1080.948500,1786
1080.949000,1766
1080.949500,1776
1080.950000,1781
1080.950500,1773
1080.951000,1766
1080.951500,1777
1080.952000,1782
1080.952500,1770
1080.953000,1764
1080.953500,1782
1080.954000,1775
1080.954500,1765
1080.955000,1779
1080.955500,1786
1080.956000,1772
1080.956500,1766
1080.957000,1782
1080.957500,1786
1080.958000,1770
1080.958500,1770
1080.959000,1788
1080.959500,1777
1080.960000,1774
1080.960500,1786
1080.961000,1796
1080.961500,1776
1080.962000,1772
1080.962500,1790
1080.963000,1778
1080.963500,1772
1080.964000,1782
1080.964500,1786
1080.965000,1778
1080.965500,1773
1080.966000,1786
1080.966500,1786
1080.967000,1768
1080.967500,1779
1080.968000,1784
1080.968500,1774
1080.969000,1771
1080.969500,1782
1080.970000,1789
1080.970500,1770
1080.971000,1767
1080.971500,1782
1080.972000,1780
1080.972500,1768
1080.973000,1778
1080.973500,1780
1080.974000,1770
1080.974500,1768
1080.975000,1783
1080.975500,1788
1080.976000,1771
1080.976500,1764
1080.977000,1782
1080.977500,1772
1080.978000,1771
1080.978500,1783
1080.979000,1790
1080.979500,1775
1080.980000,1772
1080.980500,1787
1080.981000,1794
1080.981500,1777
1080.982000,1791
1080.982500,1790
1080.983000,1779
1080.983500,1774
1080.984000,1790
1080.984500,1790
1080.985000,1778
1080.985500,1768
1080.986000,1783
1080.986500,1773
1080.987000,1766
1080.987500,1779
1080.988000,1785
1080.988500,1769
1080.989000,1764
1080.989500,1779
1080.990000,1785
1080.990500,1767
1080.991000,1770
1080.991500,1779
1080.992000,1774
1080.992500,1766
1080.993000,1778
1080.993500,1785
1080.994000,1770
1080.994500,1766
1080.995000,1783
1080.995500,1768
1080.996000,1768
1080.996500,1778
1080.997000,1787
1080.997500,1774
1080.998000,1771
1080.998500,1785
1080.999000,1789
1080.999500,1774
1081.000000,1770
1081.000500,1788
1081.001000,1783
1081.001500,1776
1081.002000,1786
1081.002500,1794
1081.003000,1778
1081.003500,1774
1081.004000,1789
1081.004500,1794
1081.005000,1770
1081.005500,1777
1081.006000,1785
1081.006500,1771
1081.007000,1766
1081.007500,1781
1081.008000,1786
1081.008500,1770
1081.009000,1766
1081.009500,1779
1081.010000,1777
1081.010500,1767
1081.011000,1776
1081.011500,1784
1081.012000,1771
1081.012500,1766
1081.013000,1779
1081.013500,1784
1081.014000,1769
1081.014500,1771
1081.015000,1784
1081.015500,1777
1081.016000,1767
1081.016500,1781
1081.017000,1786
1081.017500,1772
1081.018000,1767
1081.018500,1787
1081.019000,1782
1081.019500,1775
1081.020000,1788
1081.020500,1795
1081.021000,1782
1081.021500,1778
1081.022000,1787
1081.022500,1790
1081.023000,1769
1081.023500,1781
1081.024000,1782
1081.024500,1770
1081.025000,1764
1081.025500,1778
1081.026000,1783
1081.026500,1766
1081.027000,1766
1081.027500,1784
1081.028000,1776
1081.028500,1771
1081.029000,1779
1081.029500,1786
1081.030000,1770
1081.030500,1764
1081.031000,1783
1081.031500,1786
1081.032000,1767
1081.032500,1774
1081.033000,1781
1081.033500,1769
1081.034000,1769
1081.034500,1780
1081.035000,1783
1081.035500,1769
1081.036000,1768
1081.036500,1785
1081.037000,1777
1081.037500,1772
1081.038000,1786
1081.038500,1791
1081.039000,1776
1081.039500,1772
1081.040000,1789
1081.040500,1793
1081.041000,1775
1081.041500,1776
1081.042000,1791
1081.042500,1777
1081.043000,1770
1081.043500,1781
1081.044000,1787
1081.044500,1771
1081.045000,1771
1081.045500,1785
1081.046000,1778
1081.046500,1766
1081.047000,1773
1081.047500,1776
1081.048000,1764
1081.048500,1757
1081.049000,1773
1081.049500,1778
1081.050000,1765
1081.050500,1779
1081.051000,1787
1081.051500,1778
1081.052000,1776
1081.052500,1787
1081.053000,1792
1081.053500,1774
1081.054000,1773
1081.054500,1790
1081.055000,1778
1081.055500,1769
1081.056000,1782
1081.056500,1786
1081.057000,1769
1081.057500,1767
1081.058000,1784
1081.058500,1792
1081.059000,1774
1081.059500,1779
1081.060000,1794
1081.060500,1782
1081.061000,1779
1081.061500,1791
1081.062000,1791
1081.062500,1774
1081.063000,1764
1081.063500,1777
1081.064000,1774
1081.064500,1765
1081.065000,1778
1081.065500,1784
1081.066000,1776
1081.066500,1769
1081.067000,1786
1081.067500,1787
1081.068000,1764
1081.068500,1776
1081.069000,1772
1081.069500,1764
1081.070000,1759
1081.070500,1771
1081.071000,1782
1081.071500,1770
1081.072000,1767
1081.072500,1790
1081.073000,1795
1081.073500,1771
1081.074000,1784
1081.074500,1784
1081.075000,1782
1081.075500,1770
1081.076000,1790
1081.076500,1793
1081.077000,1778
1081.077500,1768
1081.078000,1779
1081.078500,1770
1081.079000,1767
1081.079500,1776
1081.080000,1787
1081.080500,1775
1081.081000,1774
1081.081500,1790
1081.082000,1790
1081.082500,1772
1081.083000,1775
1081.083500,1781
1081.084000,1766
1081.084500,1762
1081.085000,1776
1081.085500,1778
1081.086000,1768
1081.086500,1759
1081.087000,1773
1081.087500,1771
1081.088000,1768
1081.088500,1787
1081.089000,1800
1081.089500,1783
1081.090000,1778
1081.090500,1789
1081.091000,1794
1081.091500,1774
1081.092000,1786
1081.092500,1791
1081.093000,1780
1081.093500,1774
1081.094000,1786
1081.094500,1789
1081.095000,1773
1081.095500,1764
1081.096000,1775
1081.096500,1765
1081.097000,1765
1081.097500,1774
1081.098000,1778
1081.098500,1762
1081.099000,1762
1081.099500,1776
1081.100000,1790
1081.100500,1775
1081.101000,1779
1081.101500,1796
1081.102000,1786
1081.102500,1782
1081.103000,1794
1081.103500,1795
1081.104000,1776
1081.104500,1765
1081.105000,1778
1081.105500,1766
1081.106000,1756
1081.106500,1759
1081.107000,1765
1081.107500,1750
1081.108000,1746
1081.108500,1773
1081.109000,1779
1081.109500,1761
1081.110000,1762
1081.110500,1771
1081.111000,1764
1081.111500,1760
1081.112000,1778
1081.112500,1784
1081.113000,1775
1081.113500,1773
1081.114000,1787
1081.114500,1779
1081.115000,1768
1081.115500,1780
1081.116000,1784
1081.116500,1767
1081.117000,1766
1081.117500,1786
1081.118000,1787
1081.118500,1768
1081.119000,1784
1081.119500,1776
1081.120000,1773
1081.120500,1766
1081.121000,1776
1081.121500,1778
1081.122000,1763
1081.122500,1764
1081.123000,1790
1081.123500,1783
1081.124000,1777
1081.124500,1787
1081.125000,1793
1081.125500,1783
1081.126000,1778
1081.126500,1785
1081.127000,1782
1081.127500,1757
1081.128000,1749
1081.128500,1769
1081.129000,1760
1081.129500,1750
1081.130000,1766
1081.130500,1781
1081.131000,1780
1081.131500,1786
1081.132000,1809
1081.132500,1803
1081.133000,1762
1081.133500,1750
1081.134000,1760
1081.134500,1751
1081.135000,1746
1081.135500,1761
1081.136000,1768
1081.136500,1764
1081.137000,1783
1081.137500,1811
1081.138000,1809
1081.138500,1808
1081.139000,1814
1081.139500,1810
1081.140000,1798
1081.140500,1787
1081.141000,1794
1081.141500,1791
1081.142000,1771
1081.142500,1791
1081.143000,1786
1081.143500,1771
1081.144000,1768
1081.144500,1789
1081.145000,1798
1081.145500,1774
1081.146000,1766
1081.146500,1786
1081.147000,1786
1081.147500,1763
1081.148000,1774
1081.148500,1774
1081.149000,1763
1081.149500,1750
1081.150000,1753
1081.150500,1760
1081.151000,1746
1081.151500,1742
1081.152000,1767
1081.152500,1763
1081.153000,1760
1081.153500,1778
1081.154000,1806
1081.154500,1805
1081.155000,1802
1081.155500,1805
1081.156000,1790
1081.156500,1763
1081.157000,1772
1081.157500,1775
1081.158000,1766
1081.158500,1764
1081.159000,1787
1081.159500,1800
1081.160000,1777
1081.160500,1735
1081.161000,1738
1081.161500,1742
1081.162000,1745
1081.162500,1762
1081.163000,1769
1081.163500,1770
1081.164000,1786
1081.164500,1822
1081.165000,1842
1081.165500,1829
1081.166000,1856
1081.166500,1835
1081.167000,1802
1081.167500,1780
1081.168000,1782
1081.168500,1787
1081.169000,1778
1081.169500,1778
1081.170000,1799
1081.170500,1782
1081.171000,1779
1081.171500,1774
1081.172000,1766
1081.172500,1747
1081.173000,1741
1081.173500,1755
1081.174000,1751
1081.174500,1733
1081.175000,1757
1081.175500,1764
1081.176000,1752
1081.176500,1720
1081.177000,1722
1081.177500,1732
1081.178000,1726
1081.178500,1734
1081.179000,1769
1081.179500,1770
1081.180000,1793
1081.180500,1826
1081.181000,1859
1081.181500,1860
1081.182000,1850
1081.182500,1844
1081.183000,1825
1081.183500,1786
1081.184000,1784
1081.184500,1761
1081.185000,1739
1081.185500,1734
1081.186000,1754
1081.186500,1760
1081.187000,1712
1081.187500,1676
1081.188000,1706
1081.188500,1725
1081.189000,1739
1081.189500,1758
1081.190000,1768
1081.190500,1767
1081.191000,1795
1081.191500,1847
1081.192000,1894
1081.192500,1907
1081.193000,1907
1081.193500,1859
1081.194000,1818
1081.194500,1794
1081.195000,1783
1081.195500,1774
1081.196000,1758
1081.196500,1758
1081.197000,1780
1081.197500,1762
1081.198000,1772
1081.198500,1789
1081.199000,1796
1081.199500,1783
1081.200000,1789
1081.200500,1798
1081.201000,1806
1081.201500,1794
1081.202000,1801
1081.202500,1792
1081.203000,1778
1081.203500,1764
1081.204000,1783
1081.204500,1813
1081.205000,1827
1081.205500,1831
1081.206000,1847
1081.206500,1822
1081.207000,1790
1081.207500,1763
1081.208000,1747
1081.208500,1723
1081.209000,1720
1081.209500,1743
1081.210000,1755
1081.210500,1763
1081.211000,1775
1081.211500,1799
1081.212000,1791
1081.212500,1757
1081.213000,1749
1081.213500,1748
1081.214000,1747
1081.214500,1761
1081.215000,1795
1081.215500,1805
1081.216000,1788
1081.216500,1795
1081.217000,1801
1081.217500,1786
1081.218000,1778
1081.218500,1783
1081.219000,1788
1081.219500,1770
1081.220000,1774
1081.220500,1800
1081.221000,1794
1081.221500,1774
1081.222000,1771
1081.222500,1770
1081.223000,1746
1081.223500,1731
1081.224000,1751
1081.224500,1747
1081.225000,1768
1081.225500,1795
1081.226000,1805
1081.226500,1803
1081.227000,1805
1081.227500,1810
1081.228000,1768
1081.228500,1726
1081.229000,1714
1081.229500,1735
1081.230000,1728
1081.230500,1725
1081.231000,1736
1081.231500,1744
1081.232000,1738
1081.232500,1750
1081.233000,1786
1081.233500,1780
1081.234000,1777
1081.234500,1792
1081.235000,1802
1081.235500,1781
1081.236000,1786
1081.236500,1811
1081.237000,1826
1081.237500,1794
1081.238000,1792
1081.238500,1808
1081.239000,1798
1081.239500,1778
1081.240000,1789
1081.240500,1794
1081.241000,1767
1081.241500,1760
1081.242000,1787
1081.242500,1792
1081.243000,1814
1081.243500,1832
1081.244000,1820
1081.244500,1790
1081.245000,1770
1081.245500,1765
1081.246000,1751
1081.246500,1714
1081.247000,1702
1081.247500,1714
1081.248000,1710
1081.248500,1718
1081.249000,1742
1081.249500,1751
1081.250000,1756
1081.250500,1771
1081.251000,1807
1081.251500,1788
1081.252000,1756
1081.252500,1754
1081.253000,1800
1081.253500,1815
1081.254000,1819
1081.254500,1833
1081.255000,1835
1081.255500,1818
1081.256000,1833
1081.256500,1852
1081.257000,1830
1081.257500,1804
1081.258000,1814
1081.258500,1804
1081.259000,1761
1081.259500,1747
1081.260000,1755
1081.260500,1736
1081.261000,1726
1081.261500,1715
1081.262000,1704
1081.262500,1712
1081.263000,1731
1081.263500,1752
1081.264000,1777
1081.264500,1787
1081.265000,1808
1081.265500,1836
1081.266000,1845
1081.266500,1851
1081.267000,1867
1081.267500,1827
1081.268000,1757
1081.268500,1724
1081.269000,1736
1081.269500,1723
1081.270000,1727
1081.270500,1754
1081.271000,1784
1081.271500,1791
1081.272000,1822
1081.272500,1857
1081.273000,1866
1081.273500,1844
1081.274000,1812
1081.274500,1784
1081.275000,1752
1081.275500,1720
1081.276000,1731
1081.276500,1716
1081.277000,1670
1081.277500,1664
1081.278000,1716
1081.278500,1763
1081.279000,1779
1081.279500,1783
1081.280000,1794
1081.280500,1840
1081.281000,1870
1081.281500,1861
1081.282000,1842
1081.282500,1811
1081.283000,1837
1081.283500,1830
1081.284000,1804
1081.284500,1775
1081.285000,1769
1081.285500,1764
1081.286000,1732
1081.286500,1731
1081.287000,1767
1081.287500,1789
1081.288000,1806
1081.288500,1815
1081.289000,1814
1081.289500,1815
1081.290000,1799
1081.290500,1776
1081.291000,1732
1081.291500,1651
1081.292000,1630
1081.292500,1634
1081.293000,1660
1081.293500,1739
1081.294000,1826
1081.294500,1848
1081.295000,1822
1081.295500,1818
1081.296000,1835
1081.296500,1834
1081.297000,1825
1081.297500,1823
1081.298000,1828
1081.298500,1839
1081.299000,1835
1081.299500,1830
1081.300000,1831
1081.300500,1815
1081.301000,1808
1081.301500,1798
1081.302000,1798
1081.302500,1784
1081.303000,1770
1081.303500,1776
1081.304000,1763
1081.304500,1764
1081.305000,1781
1081.305500,1776
1081.306000,1773
1081.306500,1801
1081.307000,1817
1081.307500,1808
1081.308000,1795
1081.308500,1800
1081.309000,1785
1081.309500,1740
1081.310000,1732
1081.310500,1722
1081.311000,1705
1081.311500,1675
1081.312000,1678
1081.312500,1710
1081.313000,1714
1081.313500,1721
1081.314000,1729
1081.314500,1707
1081.315000,1711
1081.315500,1799
1081.316000,1867
1081.316500,1839
1081.317000,1759
1081.317500,1699
1081.318000,1656
1081.318500,1627
1081.319000,1658
1081.319500,1694
1081.320000,1740
1081.320500,1768
1081.321000,1766
1081.321500,1729
1081.322000,1681
1081.322500,1694
1081.323000,1778
1081.323500,1861
1081.324000,1914
1081.324500,1935
1081.325000,1922
1081.325500,1872
1081.326000,1827
1081.326500,1822
1081.327000,1799
1081.327500,1799
1081.328000,1870
1081.328500,1970
1081.329000,2030
1081.329500,2002
1081.330000,1950
1081.330500,1891
1081.331000,1837
1081.331500,1819
1081.332000,1824
1081.332500,1787
1081.333000,1771
1081.333500,1800
1081.334000,1826
1081.334500,1823
1081.335000,1807
1081.335500,1787
1081.336000,1755
1081.336500,1702
1081.337000,1670
1081.337500,1679
1081.338000,1686
1081.338500,1698
1081.339000,1727
1081.339500,1735
1081.340000,1702
1081.340500,1664
1081.341000,1664
1081.341500,1663
1081.342000,1651
1081.342500,1675
1081.343000,1711
1081.343500,1693
1081.344000,1707
1081.344500,1780
1081.345000,1864
1081.345500,1869
1081.346000,1846
1081.346500,1842
1081.347000,1826
1081.347500,1845
1081.348000,1894
1081.348500,1919
1081.349000,1891
1081.349500,1878
1081.350000,1896
1081.350500,1865
1081.351000,1840
1081.351500,1843
1081.352000,1851
1081.352500,1794
1081.353000,1733
1081.353500,1719
1081.354000,1689
1081.354500,1630
1081.355000,1635
1081.355500,1684
1081.356000,1752
1081.356500,1847
1081.357000,1911
1081.357500,1886
1081.358000,1746
1081.358500,1682
1081.359000,1682
1081.359500,1695
1081.360000,1733
1081.360500,1798
1081.361000,1800
1081.361500,1762
1081.362000,1768
1081.362500,1775
1081.363000,1751
1081.363500,1737
1081.364000,1798
1081.364500,1859
1081.365000,1851
1081.365500,1814
1081.366000,1813
1081.366500,1800
1081.367000,1778
1081.367500,1782
1081.368000,1784
1081.368500,1715
1081.369000,1666
1081.369500,1665
1081.370000,1637
1081.370500,1649
1081.371000,1761
1081.371500,1937
1081.372000,2066
1081.372500,2042
1081.373000,1959
1081.373500,1888
1081.374000,1838
1081.374500,1799
1081.375000,1766
1081.375500,1736
1081.376000,1720
1081.376500,1744
1081.377000,1779
1081.377500,1769
1081.378000,1755
1081.378500,1768
1081.379000,1763
1081.379500,1728
1081.380000,1723
1081.380500,1770
1081.381000,1810
1081.381500,1821
1081.382000,1845
1081.382500,1880
1081.383000,1851
1081.383500,1807
1081.384000,1770
1081.384500,1752
1081.385000,1721
1081.385500,1704
1081.386000,1722
1081.386500,1718
1081.387000,1729
1081.387500,1754
1081.388000,1742
1081.388500,1751
1081.389000,1769
1081.389500,1814
1081.390000,1816
1081.390500,1760
1081.391000,1782
1081.391500,1804
1081.392000,1803
1081.392500,1781
1081.393000,1712
1081.393500,1674
1081.394000,1668
1081.394500,1694
1081.395000,1741
1081.395500,1753
1081.396000,1811
1081.396500,1882
1081.397000,1880
1081.397500,1816
1081.398000,1771
1081.398500,1763
1081.399000,1786
1081.399500,1793
1081.400000,1846
1081.400500,1877
1081.401000,1871
1081.401500,1866
1081.402000,1849
1081.402500,1818
1081.403000,1747
1081.403500,1735
1081.404000,1718
1081.404500,1689
1081.405000,1711
1081.405500,1782
1081.406000,1771
1081.406500,1693
1081.407000,1642
1081.407500,1671
1081.408000,1702
1081.408500,1741
1081.409000,1835
1081.409500,1915
1081.410000,1873
1081.410500,1811
1081.411000,1808
1081.411500,1809
1081.412000,1738
1081.412500,1678
1081.413000,1655
1081.413500,1682
1081.414000,1716
1081.414500,1784
1081.415000,1876
1081.415500,1944
1081.416000,1964
1081.416500,1902
1081.417000,1807
1081.417500,1717
1081.418000,1638
1081.418500,1598
1081.419000,1607
1081.419500,1649
1081.420000,1691
1081.420500,1740
1081.421000,1785
1081.421500,1811
1081.422000,1827
1081.422500,1858
1081.423000,1889
1081.423500,1841
1081.424000,1755
1081.424500,1696
1081.425000,1718
1081.425500,1775
1081.426000,1824
1081.426500,1907
1081.427000,1957
1081.427500,1933
1081.428000,1811
1081.428500,1763
1081.429000,1783
1081.429500,1785
1081.430000,1762
1081.430500,1802
1081.431000,1839
1081.431500,1844
1081.432000,1876
1081.432500,1907
1081.433000,1850
1081.433500,1776
1081.434000,1708
1081.434500,1709
1081.435000,1750
1081.435500,1805
1081.436000,1851
1081.436500,1872
1081.437000,1847
1081.437500,1773
1081.438000,1747
1081.438500,1778
1081.439000,1803
1081.439500,1850
1081.440000,1847
1081.440500,1846
1081.441000,1828
1081.441500,1834
1081.442000,1834
1081.442500,1750
1081.443000,1661
1081.443500,1606
1081.444000,1529
1081.444500,1497
1081.445000,1574
1081.445500,1723
1081.446000,1848
1081.446500,1888
1081.447000,1853
1081.447500,1820
1081.448000,1804
1081.448500,1787
1081.449000,1819
1081.449500,1818
1081.450000,1821
1081.450500,1820
1081.451000,1791
1081.451500,1778
1081.452000,1759
1081.452500,1704
1081.453000,1623
1081.453500,1552
1081.454000,1579
1081.454500,1652
1081.455000,1714
1081.455500,1758
1081.456000,1772
1081.456500,1705
1081.457000,1684
1081.457500,1756
1081.458000,1864
1081.458500,1970
1081.459000,2064
1081.459500,2042
1081.460000,1934
1081.460500,1848
1081.461000,1794
1081.461500,1787
1081.462000,1796
1081.462500,1770
1081.463000,1733
1081.463500,1714
1081.464000,1695
1081.464500,1713
1081.465000,1778
1081.465500,1842
1081.466000,1846
1081.466500,1817
1081.467000,1795
1081.467500,1797
1081.468000,1851
1081.468500,1867
1081.469000,1874
1081.469500,1893
1081.470000,1912
1081.470500,1874
1081.471000,1790
1081.471500,1680
1081.472000,1638
1081.472500,1604
1081.473000,1604
1081.473500,1680
1081.474000,1838
1081.474500,1894
1081.475000,1809
1081.475500,1713
1081.476000,1665
1081.476500,1639
1081.477000,1595
1081.477500,1575
1081.478000,1540
1081.478500,1523
1081.479000,1568
1081.479500,1687
1081.480000,1818
1081.480500,1811
1081.481000,1733
1081.481500,1692
1081.482000,1695
1081.482500,1804
1081.483000,1960
1081.483500,2031
1081.484000,2006
1081.484500,2019
1081.485000,2015
1081.485500,1967
1081.486000,1907
1081.486500,1903
1081.487000,1907
1081.487500,1869
1081.488000,1819
1081.488500,1788
1081.489000,1770
1081.489500,1742
1081.490000,1698
1081.490500,1602
1081.491000,1511
1081.491500,1521
1081.492000,1598
1081.492500,1675
1081.493000,1742
1081.493500,1758
1081.494000,1722
1081.494500,1762
1081.495000,1826
1081.495500,1844
1081.496000,1850
1081.496500,1782
1081.497000,1750
1081.497500,1759
1081.498000,1788
1081.498500,1808
1081.499000,1798
1081.499500,1827
1081.500000,1853
1081.500500,1867
1081.501000,1894
1081.501500,1866
1081.502000,1790
1081.502500,1694
1081.503000,1583
1081.503500,1483
1081.504000,1470
1081.504500,1584
1081.505000,1735
1081.505500,1833
1081.506000,1905
1081.506500,1899
1081.507000,1856
1081.507500,1830
1081.508000,1851
1081.508500,1903
1081.509000,1934
1081.509500,1935
1081.510000,1914
1081.510500,1907
1081.511000,1883
1081.511500,1832
1081.512000,1803
1081.512500,1784
1081.513000,1754
1081.513500,1769
1081.514000,1818
1081.514500,1821
1081.515000,1818
1081.515500,1823
1081.516000,1796
1081.516500,1732
1081.517000,1686
1081.517500,1696
1081.518000,1730
1081.518500,1751
1081.519000,1788
1081.519500,1706
1081.520000,1639
1081.520500,1652
1081.521000,1753
1081.521500,1846
1081.522000,1830
1081.522500,1782
1081.523000,1719
1081.523500,1615
1081.524000,1568
1081.524500,1640
1081.525000,1738
1081.525500,1843
1081.526000,1974
1081.526500,2015
1081.527000,1906
1081.527500,1790
1081.528000,1795
1081.528500,1880
1081.529000,1944
1081.529500,1934
1081.530000,1914
1081.530500,1854
1081.531000,1781
1081.531500,1744
1081.532000,1754
1081.532500,1727
1081.533000,1718
1081.533500,1724
1081.534000,1712
1081.534500,1715
1081.535000,1746
1081.535500,1790
1081.536000,1814
1081.536500,1817
1081.537000,1839
1081.537500,1808
1081.538000,1768
1081.538500,1758
1081.539000,1768
1081.539500,1771
1081.540000,1744
1081.540500,1745
1081.541000,1775
1081.541500,1752
1081.542000,1747
1081.542500,1741
1081.543000,1738
1081.543500,1707
1081.544000,1685
1081.544500,1690
1081.545000,1694
1081.545500,1651
1081.546000,1621
1081.546500,1680
1081.547000,1698
1081.547500,1706
1081.548000,1738
1081.548500,1752
1081.549000,1778
1081.549500,1828
1081.550000,1898
1081.550500,1947
1081.551000,1890
1081.551500,1833
1081.552000,1808
1081.552500,1772
1081.553000,1713
1081.553500,1688
1081.554000,1696
1081.554500,1734
1081.555000,1814
1081.555500,1900
1081.556000,1921
1081.556500,1930
1081.557000,1943
1081.557500,1944
1081.558000,1876
1081.558500,1794
1081.559000,1762
1081.559500,1651
1081.560000,1529
1081.560500,1513
1081.561000,1565
1081.561500,1662
1081.562000,1766
1081.562500,1826
1081.563000,1840
1081.563500,1845
1081.564000,1881
1081.564500,1884
1081.565000,1812
1081.565500,1759
1081.566000,1768
1081.566500,1790
1081.567000,1780
1081.567500,1802
1081.568000,1855
1081.568500,1835
1081.569000,1774
1081.569500,1760
1081.570000,1754
1081.570500,1749
1081.571000,1806
1081.571500,1889
1081.572000,1923
1081.572500,1883
1081.573000,1806
1081.573500,1755
1081.574000,1711
1081.574500,1728
1081.575000,1799
1081.575500,1825
1081.576000,1822
1081.576500,1796
1081.577000,1766
1081.577500,1736
1081.578000,1694
1081.578500,1698
1081.579000,1678
1081.579500,1666
1081.580000,1698
1081.580500,1803
1081.581000,1876
1081.581500,1899
1081.582000,1925
1081.582500,1950
1081.583000,1872
1081.583500,1798
1081.584000,1803
1081.584500,1814
1081.585000,1773
1081.585500,1741
1081.586000,1734
1081.586500,1738
1081.587000,1759
1081.587500,1817
1081.588000,1818
1081.588500,1776
1081.589000,1714
1081.589500,1677
1081.590000,1675
1081.590500,1688
1081.591000,1746
1081.591500,1831
1081.592000,1834
1081.592500,1776
1081.593000,1733
1081.593500,1716
1081.594000,1746
1081.594500,1808
1081.595000,1858
1081.595500,1858
1081.596000,1828
1081.596500,1806
1081.597000,1773
1081.597500,1713
1081.598000,1638
1081.598500,1604
1081.599000,1624
1081.599500,1679
1081.600000,1791
1081.600500,1876
1081.601000,1886
1081.601500,1843
1081.602000,1809
1081.602500,1755
1081.603000,1734
1081.603500,1714
1081.604000,1714
1081.604500,1690
1081.605000,1678
1081.605500,1682
1081.606000,1699
1081.606500,1683
1081.607000,1776
1081.607500,1900
1081.608000,1939
1081.608500,1882
1081.609000,1841
1081.609500,1835
1081.610000,1809
1081.610500,1815
1081.611000,1828
1081.611500,1843
1081.612000,1851
1081.612500,1860
1081.613000,1884
1081.613500,1887
1081.614000,1840
1081.614500,1818
1081.615000,1819
1081.615500,1802
1081.616000,1787
1081.616500,1807
1081.617000,1817
1081.617500,1791
1081.618000,1739
1081.618500,1713
1081.619000,1716
1081.619500,1737
1081.620000,1791
1081.620500,1821
1081.621000,1803
1081.621500,1779
1081.622000,1814
1081.622500,1807
1081.623000,1798
1081.623500,1794
1081.624000,1786
1081.624500,1755
1081.625000,1714
1081.625500,1711
1081.626000,1734
1081.626500,1719
1081.627000,1715
1081.627500,1723
1081.628000,1678
1081.628500,1644
1081.629000,1674
1081.629500,1696
1081.630000,1644
1081.630500,1631
1081.631000,1692
1081.631500,1674
1081.632000,1678
1081.632500,1759
1081.633000,1865
1081.633500,1891
1081.634000,1894
1081.634500,1895
1081.635000,1955
1081.635500,1974
1081.636000,1856
1081.636500,1704
1081.637000,1610
1081.637500,1584
1081.638000,1602
1081.638500,1603
1081.639000,1616
1081.639500,1646
1081.640000,1695
1081.640500,1736
1081.641000,1840
1081.641500,2015
1081.642000,2099
1081.642500,2038
1081.643000,1925
1081.643500,1886
1081.644000,1904
1081.644500,1914
1081.645000,1898
1081.645500,1862
1081.646000,1818
1081.646500,1805
1081.647000,1810
1081.647500,1804
1081.648000,1774
1081.648500,1759
1081.649000,1789
1081.649500,1802
1081.650000,1746
1081.650500,1666
1081.651000,1630
1081.651500,1623
1081.652000,1690
1081.652500,1790
1081.653000,1854
1081.653500,1848
1081.654000,1803
1081.654500,1820
1081.655000,1815
1081.655500,1815
1081.656000,1814
1081.656500,1781
1081.657000,1766
1081.657500,1776
1081.658000,1803
1081.658500,1807
1081.659000,1820
1081.659500,1814
1081.660000,1760
1081.660500,1704
1081.661000,1671
1081.661500,1659
1081.662000,1667
1081.662500,1651
1081.663000,1637
1081.663500,1631
1081.664000,1621
1081.664500,1662
1081.665000,1742
1081.665500,1807
1081.666000,1818
1081.666500,1810
1081.667000,1816
1081.667500,1771
1081.668000,1724
1081.668500,1694
1081.669000,1697
1081.669500,1734
1081.670000,1816
1081.670500,1927
1081.671000,1986
1081.671500,1909
1081.672000,1851
1081.672500,1812
1081.673000,1746
1081.673500,1656
1081.674000,1664
1081.674500,1714
1081.675000,1754
1081.675500,1879
1081.676000,2007
1081.676500,1980
1081.677000,1919
1081.677500,1869
1081.678000,1811
1081.678500,1737
1081.679000,1702
1081.679500,1692
1081.680000,1680
1081.680500,1659
1081.681000,1694
1081.681500,1710
1081.682000,1691
1081.682500,1689
1081.683000,1738
1081.683500,1791
1081.684000,1814
1081.684500,1817
1081.685000,1818
1081.685500,1786
1081.686000,1765
1081.686500,1755
1081.687000,1744
1081.687500,1745
1081.688000,1784
1081.688500,1828
1081.689000,1816
1081.689500,1790
1081.690000,1822
1081.690500,1842
1081.691000,1839
1081.691500,1832
1081.692000,1823
1081.692500,1808
1081.693000,1767
1081.693500,1748
1081.694000,1726
1081.694500,1686
1081.695000,1698
1081.695500,1716
1081.696000,1674
1081.696500,1684
1081.697000,1750
1081.697500,1736
1081.698000,1718
1081.698500,1783
1081.699000,1910
1081.699500,1966
1081.700000,1989
1081.700500,1971
1081.701000,1866
1081.701500,1751
1081.702000,1696
1081.702500,1683
1081.703000,1694
1081.703500,1680
1081.704000,1670
1081.704500,1698
1081.705000,1736
1081.705500,1760
1081.706000,1818
1081.706500,1821
1081.707000,1820
1081.707500,1796
1081.708000,1813
1081.708500,1864
1081.709000,1922
1081.709500,1941
1081.710000,1920
1081.710500,1854
1081.711000,1780
1081.711500,1686
1081.712000,1629
1081.712500,1625
1081.713000,1658
1081.713500,1720
1081.714000,1735
1081.714500,1738
1081.715000,1758
1081.715500,1817
1081.716000,1868
1081.716500,1843
1081.717000,1836
1081.717500,1801
1081.718000,1745
1081.718500,1734
1081.719000,1798
1081.719500,1829
1081.720000,1820
1081.720500,1795
1081.721000,1732
1081.721500,1666
1081.722000,1640
1081.722500,1678
1081.723000,1722
1081.723500,1775
1081.724000,1812
1081.724500,1838
1081.725000,1840
1081.725500,1803
1081.726000,1785
1081.726500,1778
1081.727000,1758
1081.727500,1773
1081.728000,1833
1081.728500,1848
1081.729000,1826
1081.729500,1807
1081.730000,1824
1081.730500,1812
1081.731000,1786
1081.731500,1769
1081.732000,1734
1081.732500,1691
1081.733000,1662
1081.733500,1692
1081.734000,1701
1081.734500,1691
1081.735000,1676
1081.735500,1650
1081.736000,1634
1081.736500,1678
1081.737000,1731
1081.737500,1771
1081.738000,1818
1081.738500,1879
1081.739000,1930
1081.739500,1914
1081.740000,1876
1081.740500,1900
1081.741000,1902
1081.741500,1850
1081.742000,1823
1081.742500,1841
1081.743000,1768
1081.743500,1649
1081.744000,1546
1081.744500,1495
1081.745000,1570
1081.745500,1732
1081.746000,1938
1081.746500,2081
1081.747000,2080
1081.747500,1966
1081.748000,1888
1081.748500,1870
1081.749000,1807
1081.749500,1776
1081.750000,1767
1081.750500,1782
1081.751000,1822
1081.751500,1858
1081.752000,1849
1081.752500,1787
1081.753000,1762
1081.753500,1733
1081.754000,1678
1081.754500,1684
1081.755000,1702
1081.755500,1714
1081.756000,1714
1081.756500,1783
1081.757000,1816
1081.757500,1784
1081.758000,1767
1081.758500,1781
1081.759000,1732
1081.759500,1707
1081.760000,1782
1081.760500,1786
1081.761000,1715
1081.761500,1673
1081.762000,1703
1081.762500,1782
1081.763000,1851
1081.763500,1895
1081.764000,1827
1081.764500,1689
1081.765000,1600
1081.765500,1591
1081.766000,1681
1081.766500,1830
1081.767000,1928
1081.767500,1932
1081.768000,1914
1081.768500,1886
1081.769000,1863
1081.769500,1851
1081.770000,1826
1081.770500,1792
1081.771000,1776
1081.771500,1783
1081.772000,1789
1081.772500,1754
1081.773000,1698
1081.773500,1688
1081.774000,1718
1081.774500,1758
1081.775000,1797
1081.775500,1814
1081.776000,1842
1081.776500,1816
1081.777000,1771
1081.777500,1686
1081.778000,1628
1081.778500,1610
1081.779000,1608
1081.779500,1648
1081.780000,1758
1081.780500,1894
1081.781000,1971
1081.781500,1953
1081.782000,1957
1081.782500,1952
1081.783000,1898
1081.783500,1851
1081.784000,1821
1081.784500,1789
1081.785000,1765
1081.785500,1774
1081.786000,1776
1081.786500,1749
1081.787000,1732
1081.787500,1718
1081.788000,1711
1081.788500,1698
1081.789000,1683
1081.789500,1708
1081.790000,1709
1081.790500,1715
1081.791000,1766
1081.791500,1810
1081.792000,1820
1081.792500,1873
1081.793000,1892
1081.793500,1883
1081.794000,1835
1081.794500,1799
1081.795000,1750
1081.795500,1670
1081.796000,1640
1081.796500,1654
1081.797000,1739
1081.797500,1858
1081.798000,1952
1081.798500,1952
1081.799000,1859
1081.799500,1731
1081.800000,1702
1081.800500,1688
1081.801000,1638
1081.801500,1640
1081.802000,1706
1081.802500,1734
1081.803000,1749
1081.803500,1791
1081.804000,1831
1081.804500,1817
1081.805000,1807
1081.805500,1855
1081.806000,1893
1081.806500,1889
1081.807000,1852
1081.807500,1805
1081.808000,1786
1081.808500,1825
1081.809000,1893
1081.809500,1960
1081.810000,1955
1081.810500,1902
1081.811000,1816
1081.811500,1713
1081.812000,1628
1081.812500,1618
1081.813000,1664
1081.813500,1703
1081.814000,1749
1081.814500,1802
1081.815000,1789
1081.815500,1777
1081.816000,1774
1081.816500,1779
1081.817000,1783
1081.817500,1767
1081.818000,1750
1081.818500,1776
1081.819000,1774
1081.819500,1802
1081.820000,1818
1081.820500,1784
1081.821000,1689
1081.821500,1712
1081.822000,1829
1081.822500,1959
1081.823000,1988
1081.823500,2008
1081.824000,1963
1081.824500,1814
1081.825000,1747
1081.825500,1739
1081.826000,1614
1081.826500,1475
1081.827000,1461
1081.827500,1558
1081.828000,1721
1081.828500,1874
1081.829000,1959
1081.829500,1939
1081.830000,1816
1081.830500,1650
1081.831000,1590
1081.831500,1592
1081.832000,1599
1081.832500,1668
1081.833000,1644
1081.833500,1630
1081.834000,1678
1081.834500,1781
1081.835000,1891
1081.835500,1971
1081.836000,2004
1081.836500,1973
1081.837000,1886
1081.837500,1846
1081.838000,1801
1081.838500,1723
1081.839000,1698
1081.839500,1754
1081.840000,1847
1081.840500,1918
1081.841000,1972
1081.841500,1839
1081.842000,1650
1081.842500,1578
1081.843000,1611
1081.843500,1719
1081.844000,1869
1081.844500,1931
1081.845000,1922
1081.845500,1890
1081.846000,1839
1081.846500,1822
1081.847000,1864
1081.847500,1842
1081.848000,1793
1081.848500,1789
1081.849000,1858
1081.849500,1866
1081.850000,1762
1081.850500,1710
1081.851000,1714
1081.851500,1666
1081.852000,1665
1081.852500,1691
1081.853000,1654
1081.853500,1656
1081.854000,1755
1081.854500,1887
1081.855000,1923
1081.855500,1901
1081.856000,1848
1081.856500,1770
1081.857000,1630
1081.857500,1560
1081.858000,1591
1081.858500,1625
1081.859000,1705
1081.859500,1801
1081.860000,1847
1081.860500,1835
1081.861000,1793
1081.861500,1748
1081.862000,1727
1081.862500,1665
1081.863000,1640
1081.863500,1653
1081.864000,1663
1081.864500,1570
1081.865000,1581
1081.865500,1643
1081.866000,1680
1081.866500,1774
1081.867000,1922
1081.867500,2035
1081.868000,1988
1081.868500,1922
1081.869000,1937
1081.869500,1919
1081.870000,1885
1081.870500,1868
1081.871000,1850
1081.871500,1838
1081.872000,1910
1081.872500,2002
1081.873000,1963
1081.873500,1847
1081.874000,1816
1081.874500,1791
1081.875000,1786
1081.875500,1776
1081.876000,1780
1081.876500,1798
1081.877000,1820
1081.877500,1800
1081.878000,1785
1081.878500,1760
1081.879000,1746
1081.879500,1734
1081.880000,1674
1081.880500,1633
1081.881000,1650
1081.881500,1683
1081.882000,1648
1081.882500,1657
1081.883000,1717
1081.883500,1777
1081.884000,1878
1081.884500,1979
1081.885000,2022
1081.885500,2039
1081.886000,1953
1081.886500,1808
1081.887000,1669
1081.887500,1534
1081.888000,1460
1081.888500,1512
1081.889000,1712
1081.889500,1927
1081.890000,2057
1081.890500,2081
1081.891000,2013
1081.891500,1873
1081.892000,1715
1081.892500,1628
1081.893000,1596
1081.893500,1606
1081.894000,1655
1081.894500,1770
1081.895000,1839
1081.895500,1884
1081.896000,1892
1081.896500,1840
1081.897000,1802
1081.897500,1800
1081.898000,1802
1081.898500,1789
1081.899000,1798
1081.899500,1779
1081.900000,1739
1081.900500,1744
1081.901000,1823
1081.901500,1926
1081.902000,1944
1081.902500,1842
1081.903000,1716
1081.903500,1615
1081.904000,1559
1081.904500,1552
1081.905000,1571
1081.905500,1590
1081.906000,1656
1081.906500,1773
1081.907000,1861
1081.907500,1861
1081.908000,1839
1081.908500,1838
1081.909000,1801
1081.909500,1756
1081.910000,1760
1081.910500,1851
1081.911000,1922
1081.911500,1910
1081.912000,1823
1081.912500,1739
1081.913000,1728
1081.913500,1778
1081.914000,1829
1081.914500,1812
1081.915000,1810
1081.915500,1802
1081.916000,1779
1081.916500,1736
1081.917000,1692
1081.917500,1722
1081.918000,1753
1081.918500,1720
1081.919000,1707
1081.919500,1731
1081.920000,1794
1081.920500,1866
1081.921000,1923
1081.921500,1929
1081.922000,1890
1081.922500,1817
1081.923000,1790
1081.923500,1774
1081.924000,1763
1081.924500,1780
1081.925000,1798
1081.925500,1771
1081.926000,1762
1081.926500,1819
1081.927000,1885
1081.927500,1840
1081.928000,1819
1081.928500,1853
1081.929000,1820
1081.929500,1747
1081.930000,1685
1081.930500,1629
1081.931000,1636
1081.931500,1740
1081.932000,1814
1081.932500,1733
1081.933000,1677
1081.933500,1723
1081.934000,1757
1081.934500,1785
1081.935000,1750
1081.935500,1749
1081.936000,1745
1081.936500,1708
1081.937000,1669
1081.937500,1739
1081.938000,1835
1081.938500,1919
1081.939000,1998
1081.939500,1990
1081.940000,1882
1081.940500,1833
1081.941000,1825
1081.941500,1770
1081.942000,1718
1081.942500,1702
1081.943000,1732
1081.943500,1755
1081.944000,1784
1081.944500,1827
1081.945000,1865
1081.945500,1866
1081.946000,1886
1081.946500,1927
1081.947000,1920
1081.947500,1854
1081.948000,1802
1081.948500,1761
1081.949000,1734
1081.949500,1734
1081.950000,1727
1081.950500,1670
1081.951000,1593
1081.951500,1559
1081.952000,1604
1081.952500,1653
1081.953000,1694
1081.953500,1756
1081.954000,1834
1081.954500,1883
1081.955000,1915
1081.955500,1915
1081.956000,1881
1081.956500,1814
1081.957000,1784
1081.957500,1776
1081.958000,1751
1081.958500,1719
1081.959000,1735
1081.959500,1753
1081.960000,1712
1081.960500,1674
1081.961000,1702
1081.961500,1781
1081.962000,1874
1081.962500,1970
1081.963000,1950
1081.963500,1899
1081.964000,1874
1081.964500,1872
1081.965000,1880
1081.965500,1888
1081.966000,1874
1081.966500,1806
1081.967000,1740
1081.967500,1712
1081.968000,1724
1081.968500,1726
1081.969000,1709
1081.969500,1710
1081.970000,1755
1081.970500,1789
1081.971000,1788
1081.971500,1768
1081.972000,1757
1081.972500,1715
1081.973000,1702
1081.973500,1760
1081.974000,1799
1081.974500,1783
1081.975000,1765
1081.975500,1772
1081.976000,1732
1081.976500,1685
1081.977000,1701
1081.977500,1764
1081.978000,1808
1081.978500,1836
1081.979000,1822
1081.979500,1806
1081.980000,1795
1081.980500,1799
1081.981000,1820
1081.981500,1802
1081.982000,1785
1081.982500,1783
1081.983000,1782
1081.983500,1758
1081.984000,1739
1081.984500,1763
1081.985000,1780
1081.985500,1779
1081.986000,1808
1081.986500,1831
1081.987000,1799
1081.987500,1748
1081.988000,1724
1081.988500,1715
1081.989000,1706
1081.989500,1713
1081.990000,1711
1081.990500,1710
1081.991000,1726
1081.991500,1752
1081.992000,1761
1081.992500,1759
1081.993000,1778
1081.993500,1821
1081.994000,1820
1081.994500,1806
1081.995000,1812
1081.995500,1823
1081.996000,1828
1081.996500,1832
1081.997000,1865
1081.997500,1863
1081.998000,1785
1081.998500,1766
1081.999000,1746
1081.999500,1705
1082.000000,1683
1082.000500,1694
1082.001000,1730
1082.001500,1790
1082.002000,1834
1082.002500,1862
1082.003000,1835
1082.003500,1834
1082.004000,1820
1082.004500,1778
1082.005000,1741
1082.005500,1752
1082.006000,1788
1082.006500,1812
1082.007000,1825
1082.007500,1826
1082.008000,1816
1082.008500,1768
1082.009000,1729
1082.009500,1746
1082.010000,1785
1082.010500,1809
1082.011000,1832
1082.011500,1838
1082.012000,1828
1082.012500,1794
1082.013000,1782
1082.013500,1780
1082.014000,1771
1082.014500,1768
1082.015000,1790
1082.015500,1793
1082.016000,1774
1082.016500,1754
1082.017000,1731
1082.017500,1690
1082.018000,1632
1082.018500,1644
1082.019000,1712
1082.019500,1808
1082.020000,1874
1082.020500,1878
1082.021000,1843
1082.021500,1782
1082.022000,1763
1082.022500,1784
1082.023000,1788
1082.023500,1786
1082.024000,1782
1082.024500,1738
1082.025000,1696
1082.025500,1686
1082.026000,1730
1082.026500,1786
1082.027000,1862
1082.027500,1887
1082.028000,1868
1082.028500,1831
1082.029000,1796
1082.029500,1787
1082.030000,1780
1082.030500,1757
1082.031000,1776
1082.031500,1771
1082.032000,1760
1082.032500,1763
1082.033000,1799
1082.033500,1812
1082.034000,1786
1082.034500,1771
1082.035000,1784
1082.035500,1781
1082.036000,1799
1082.036500,1803
1082.037000,1788
1082.037500,1755
1082.038000,1746
1082.038500,1744
1082.039000,1742
1082.039500,1721
1082.040000,1731
1082.040500,1784
1082.041000,1808
1082.041500,1806
1082.042000,1825
1082.042500,1843
1082.043000,1842
1082.043500,1835
1082.044000,1837
1082.044500,1825
1082.045000,1794
1082.045500,1785
1082.046000,1752
1082.046500,1710
1082.047000,1690
1082.047500,1699
1082.048000,1703
1082.048500,1710
1082.049000,1737
1082.049500,1794
1082.050000,1815
1082.050500,1813
1082.051000,1811
1082.051500,1821
1082.052000,1814
1082.052500,1809
1082.053000,1814
1082.053500,1819
1082.054000,1804
1082.054500,1804
1082.055000,1810
1082.055500,1791
1082.056000,1783
1082.056500,1792
1082.057000,1798
1082.057500,1772
1082.058000,1770
1082.058500,1784
1082.059000,1770
1082.059500,1766
1082.060000,1786
1082.060500,1793
1082.061000,1779
1082.061500,1770
1082.062000,1787
1082.062500,1794
1082.063000,1781
1082.063500,1799
1082.064000,1791
1082.064500,1785
1082.065000,1774
1082.065500,1785
1082.066000,1787
1082.066500,1769
1082.067000,1766
1082.067500,1784
1082.068000,1766
1082.068500,1738
1082.069000,1736
1082.069500,1744
1082.070000,1754
1082.070500,1782
1082.071000,1826
1082.071500,1843
1082.072000,1814
1082.072500,1804
1082.073000,1790
1082.073500,1770
1082.074000,1755
1082.074500,1766
1082.075000,1774
1082.075500,1758
1082.076000,1758
1082.076500,1779
1082.077000,1780
1082.077500,1783
1082.078000,1799
1082.078500,1808
1082.079000,1800
1082.079500,1791
1082.080000,1796
1082.080500,1793
1082.081000,1781
1082.081500,1801
1082.082000,1798
1082.082500,1781
1082.083000,1771
1082.083500,1779
1082.084000,1789
1082.084500,1778
1082.085000,1773
1082.085500,1787
1082.086000,1774
1082.086500,1768
1082.087000,1782
1082.087500,1785
1082.088000,1774
1082.088500,1766
1082.089000,1774
1082.089500,1770
1082.090000,1760
1082.090500,1771
1082.091000,1782
1082.091500,1763
1082.092000,1759
1082.092500,1769
1082.093000,1779
1082.093500,1778
1082.094000,1782
1082.094500,1800
1082.095000,1806
1082.095500,1783
1082.096000,1780
1082.096500,1783
1082.097000,1770
1082.097500,1766
1082.098000,1784
1082.098500,1791
1082.099000,1780
1082.099500,1774
1082.100000,1797
1082.100500,1792
1082.101000,1783
1082.101500,1794
1082.102000,1800
1082.102500,1783
1082.103000,1775
1082.103500,1789
1082.104000,1791
1082.104500,1774
1082.105000,1773
1082.105500,1782
1082.106000,1775
1082.106500,1769
1082.107000,1781
1082.107500,1786
1082.108000,1772
1082.108500,1772
1082.109000,1790
1082.109500,1774
1082.110000,1770
1082.110500,1782
1082.111000,1788
1082.111500,1773
1082.112000,1762
1082.112500,1776
1082.113000,1783
1082.113500,1769
1082.114000,1786
1082.114500,1784
1082.115000,1774
1082.115500,1770
1082.116000,1784
1082.116500,1784
1082.117000,1774
1082.117500,1766
1082.118000,1787
1082.118500,1776
1082.119000,1778
1082.119500,1786
1082.120000,1791
1082.120500,1782
1082.121000,1778
1082.121500,1788
1082.122000,1794
1082.122500,1778
1082.123000,1792
1082.123500,1791
1082.124000,1779
1082.124500,1774
1082.125000,1787
1082.125500,1791
1082.126000,1777
1082.126500,1771
1082.127000,1785
1082.127500,1773
1082.128000,1771
1082.128500,1785
1082.129000,1791
1082.129500,1781
1082.130000,1781
1082.130500,1790
1082.131000,1796
1082.131500,1775
1082.132000,1762
1082.132500,1779
1082.133000,1767
1082.133500,1765
1082.134000,1785
1082.134500,1799
1082.135000,1791
1082.135500,1785
1082.136000,1797
1082.136500,1794
1082.137000,1784
1082.137500,1793
1082.138000,1796
1082.138500,1786
1082.139000,1780
1082.139500,1791
1082.140000,1800
1082.140500,1778
1082.141000,1771
1082.141500,1786
1082.142000,1779
1082.142500,1774
1082.143000,1786
1082.143500,1794
1082.144000,1782
1082.144500,1778
1082.145000,1794
1082.145500,1799
1082.146000,1782
1082.146500,1791
1082.147000,1794
1082.147500,1782
1082.148000,1778
1082.148500,1788
1082.149000,1794
1082.149500,1779
1082.150000,1778
1082.150500,1788
1082.151000,1779
1082.151500,1771
1082.152000,1783
1082.152500,1784
1082.153000,1767
1082.153500,1766
1082.154000,1786
1082.154500,1788
1082.155000,1767
1082.155500,1767
1082.156000,1784
1082.156500,1775
1082.157000,1774
1082.157500,1787
1082.158000,1796
1082.158500,1780
1082.159000,1774
1082.159500,1790
1082.160000,1780
1082.160500,1776
1082.161000,1791
1082.161500,1795
1082.162000,1786
1082.162500,1780
1082.163000,1793
1082.163500,1799
1082.164000,1782
1082.164500,1797
1082.165000,1798
1082.165500,1786
1082.166000,1782
1082.166500,1786
1082.167000,1795
1082.167500,1782
1082.168000,1775
1082.168500,1790
1082.169000,1794
1082.169500,1778
1082.170000,1789
1082.170500,1793
1082.171000,1782
1082.171500,1772
1082.172000,1791
1082.172500,1794
1082.173000,1782
1082.173500,1773
1082.174000,1787
1082.174500,1779
1082.175000,1771
1082.175500,1783
1082.176000,1790
1082.176500,1777
1082.177000,1778
1082.177500,1788
1082.178000,1795
1082.178500,1777
1082.179000,1794
1082.179500,1794
1082.180000,1782
1082.180500,1784
1082.181000,1800
1082.181500,1798
1082.182000,1782
1082.182500,1772
1082.183000,1787
1082.183500,1772
1082.184000,1773
1082.184500,1783
1082.185000,1795
1082.185500,1781
1082.186000,1776
1082.186500,1786
1082.187000,1788
1082.187500,1773
1082.188000,1771
1082.188500,1788
1082.189000,1776
1082.189500,1772
1082.190000,1786
1082.190500,1787
1082.191000,1776
1082.191500,1768
1082.192000,1783
1082.192500,1775
1082.193000,1774
1082.193500,1784
1082.194000,1790
1082.194500,1780
1082.195000,1773
1082.195500,1787
1082.196000,1791
1082.196500,1777
1082.197000,1773
1082.197500,1790
1082.198000,1782
1082.198500,1776
1082.199000,1792
1082.199500,1798
1082.200000,1787
1082.200500,1786
1082.201000,1800
1082.201500,1802
1082.202000,1785
1082.202500,1794
1082.203000,1799
1082.203500,1786
1082.204000,1778
1082.204500,1791
1082.205000,1798
1082.205500,1782
1082.206000,1774
1082.206500,1789
1082.207000,1778
1082.207500,1773
1082.208000,1785
1082.208500,1788
1082.209000,1775
1082.209500,1771
1082.210000,1793
1082.210500,1797
1082.211000,1774
1082.211500,1783
1082.212000,1784
1082.212500,1776
1082.213000,1774
1082.213500,1787
1082.214000,1792
1082.214500,1776
1082.215000,1772
1082.215500,1789
1082.216000,1781
1082.216500,1775
1082.217000,1787
1082.217500,1790
1082.218000,1780
1082.218500,1775
1082.219000,1794
1082.219500,1798
1082.220000,1789
1082.220500,1793
1082.221000,1798
1082.221500,1785
1082.222000,1778
1082.222500,1795
1082.223000,1798
1082.223500,1781
1082.224000,1777
1082.224500,1792
1082.225000,1784
1082.225500,1779
1082.226000,1790
1082.226500,1791
1082.227000,1781
1082.227500,1771
1082.228000,1789
1082.228500,1794
1082.229000,1776
1082.229500,1777
1082.230000,1793
1082.230500,1783
1082.231000,1776
1082.231500,1786
1082.232000,1789
1082.232500,1778
1082.233000,1768
1082.233500,1786
1082.234000,1783
1082.234500,1778
1082.235000,1787
1082.235500,1794
1082.236000,1781
1082.236500,1776
1082.237000,1791
1082.237500,1794
1082.238000,1779
1082.238500,1783
1082.239000,1794
1082.239500,1782
1082.240000,1779
1082.240500,1795
1082.241000,1800
1082.241500,1783
1082.242000,1777
1082.242500,1796
1082.243000,1787
1082.243500,1779
1082.244000,1789
1082.244500,1793
1082.245000,1786
1082.245500,1774
1082.246000,1791
1082.246500,1795
1082.247000,1776
1082.247500,1791
1082.248000,1792
1082.248500,1778
1082.249000,1771
1082.249500,1786
1082.250000,1793
1082.250500,1778
1082.251000,1772
1082.251500,1786
1082.252000,1778
1082.252500,1771
1082.253000,1782
1082.253500,1788
1082.254000,1775
1082.254500,1773
1082.255000,1790
1082.255500,1785
1082.256000,1775
1082.256500,1789
1082.257000,1794
1082.257500,1782
1082.258000,1777
1082.258500,1790
1082.259000,1796
1082.259500,1782
1082.260000,1783
1082.260500,1796
1082.261000,1790
1082.261500,1784
1082.262000,1796
1082.262500,1800
1082.263000,1788
1082.263500,1781
1082.264000,1799
1082.264500,1800
1082.265000,1776
1082.265500,1782
1082.266000,1791
1082.266500,1778
1082.267000,1770
1082.267500,1782
1082.268000,1788
1082.268500,1774
1082.269000,1771
1082.269500,1787
1082.270000,1777
1082.270500,1775
1082.271000,1786
1082.271500,1790
1082.272000,1776
1082.272500,1770
1082.273000,1783
1082.273500,1786
1082.274000,1768
1082.274500,1776
1082.275000,1790
1082.275500,1779
1082.276000,1778
1082.276500,1787
1082.277000,1795
1082.277500,1780
1082.278000,1776
1082.278500,1791
1082.279000,1789
1082.279500,1778
1082.280000,1794
1082.280500,1795
1082.281000,1784
1082.281500,1779
1082.282000,1792
1082.282500,1799
1082.283000,1782
1082.283500,1783
1082.284000,1794
1082.284500,1783
1082.285000,1778
1082.285500,1792
1082.286000,1795
1082.286500,1779
1082.287000,1774
1082.287500,1790
1082.288000,1782
1082.288500,1772
1082.289000,1786
1082.289500,1790
1082.290000,1778
1082.290500,1776
1082.291000,1787
1082.291500,1791
1082.292000,1774
1082.292500,1778
1082.293000,1789
1082.293500,1780
1082.294000,1775
1082.294500,1787
1082.295000,1792
1082.295500,1778
1082.296000,1776
1082.296500,1788
1082.297000,1784
1082.297500,1774
1082.298000,1789
1082.298500,1794
1082.299000,1783
1082.299500,1778
1082.300000,1791
1082.300500,1798
1082.301000,1781
1082.301500,1781
1082.302000,1794
1082.302500,1786
1082.303000,1777
1082.303500,1794
1082.304000,1797
1082.304500,1781
1082.305000,1778
1082.305500,1788
1082.306000,1784
1082.306500,1774
1082.307000,1787
1082.307500,1790
1082.308000,1778
1082.308500,1771
1082.309000,1787
1082.309500,1788
1082.310000,1773
1082.310500,1774
1082.311000,1789
1082.311500,1779
1082.312000,1772
1082.312500,1785
1082.313000,1791
1082.313500,1776
1082.314000,1773
1082.314500,1787
1082.315000,1785
1082.315500,1777
1082.316000,1787
1082.316500,1790
1082.317000,1779
1082.317500,1774
1082.318000,1789
1082.318500,1792
1082.319000,1778
1082.319500,1782
1082.320000,1797
1082.320500,1786
1082.321000,1783
1082.321500,1791
1082.322000,1796
1082.322500,1782
1082.323000,1778
1082.323500,1794
1082.324000,1790
1082.324500,1781
1082.325000,1787
1082.325500,1793
1082.326000,1781
1082.326500,1776
1082.327000,1789
1082.327500,1790
1082.328000,1776
1082.328500,1774
1082.329000,1790
1082.329500,1778
1082.330000,1776
1082.330500,1784
1082.331000,1791
1082.331500,1774
1082.332000,1771
1082.332500,1786
1082.333000,1783
1082.333500,1773
1082.334000,1786
1082.334500,1794
1082.335000,1779
1082.335500,1776
1082.336000,1791
1082.336500,1795
1082.337000,1776
1082.337500,1784
1082.338000,1791
1082.338500,1779
1082.339000,1776
1082.339500,1791
1082.340000,1801
1082.340500,1784
1082.341000,1782
1082.341500,1799
1082.342000,1792
1082.342500,1781
1082.343000,1794
1082.343500,1795
1082.344000,1780
1082.344500,1776
1082.345000,1787
1082.345500,1794
1082.346000,1778
1082.346500,1776
1082.347000,1787
1082.347500,1778
1082.348000,1774
1082.348500,1786
1082.349000,1790
1082.349500,1774
1082.350000,1766
1082.350500,1786
1082.351000,1778
1082.351500,1772
1082.352000,1784
1082.352500,1791
1082.353000,1777
1082.353500,1770
1082.354000,1790
1082.354500,1794
1082.355000,1779
1082.355500,1776
1082.356000,1791
1082.356500,1778
1082.357000,1776
1082.357500,1787
1082.358000,1795
1082.358500,1781
1082.359000,1776
1082.359500,1793
1082.360000,1782
1082.360500,1784
1082.361000,1794
1082.361500,1796
1082.362000,1788
1082.362500,1781
1082.363000,1796
1082.363500,1794
1082.364000,1776
1082.364500,1773
1082.365000,1791
1082.365500,1781
1082.366000,1777
1082.366500,1786
1082.367000,1793
1082.367500,1778
1082.368000,1774
1082.368500,1790
1082.369000,1794
1082.369500,1772
1082.370000,1787
1082.370500,1789
1082.371000,1779
1082.371500,1773
1082.372000,1787
1082.372500,1792
1082.373000,1778
1082.373500,1795
1082.374000,1793
1082.374500,1782
1082.375000,1778
1082.375500,1787
1082.376000,1794
1082.376500,1778
1082.377000,1772
1082.377500,1790
1082.378000,1776
1082.378500,1778
1082.379000,1790
1082.379500,1794
1082.380000,1786
1082.380500,1780
1082.381000,1795
1082.381500,1795
1082.382000,1782
1082.382500,1798
1082.383000,1797
1082.383500,1786
1082.384000,1778
1082.384500,1788
1082.385000,1796
1082.385500,1778
1082.386000,1771
1082.386500,1785
1082.387000,1775
1082.387500,1772
1082.388000,1782
1082.388500,1788
1082.389000,1778
1082.389500,1771
1082.390000,1786
1082.390500,1790
1082.391000,1778
1082.391500,1799
1082.392000,1791
1082.392500,1783
1082.393000,1774
1082.393500,1787
1082.394000,1795
1082.394500,1780
1082.395000,1774
1082.395500,1788
1082.396000,1777
1082.396500,1771
1082.397000,1784
1082.397500,1789
1082.398000,1777
1082.398500,1775
1082.399000,1790
1082.399500,1794
1082.400000,1780
1082.400500,1806
1082.401000,1794
1082.401500,1783
1082.402000,1779
1082.402500,1791
1082.403000,1796
1082.403500,1780
1082.404000,1776
1082.404500,1790
1082.405000,1782
1082.405500,1775
1082.406000,1791
1082.406500,1792
1082.407000,1778
1082.407500,1772
1082.408000,1787
1082.408500,1792
1082.409000,1779
1082.409500,1779
1082.410000,1793
1082.410500,1781
1082.411000,1771
1082.411500,1782
1082.412000,1787
1082.412500,1769
1082.413000,1769
1082.413500,1790
1082.414000,1782
1082.414500,1774
1082.415000,1790
1082.415500,1785
1082.416000,1775
1082.416500,1768
1082.417000,1783
1082.417500,1788
1082.418000,1772
1082.418500,1782
1082.419000,1789
1082.419500,1781
1082.420000,1779
1082.420500,1794
1082.421000,1799
1082.421500,1782
1082.422000,1777
1082.422500,1802
1082.423000,1790
1082.423500,1787
1082.424000,1799
1082.424500,1799
1082.425000,1793
1082.425500,1783
1082.426000,1800
1082.426500,1798
1082.427000,1777
1082.427500,1787
1082.428000,1782
1082.428500,1771
1082.429000,1763
1082.429500,1778
1082.430000,1787
1082.430500,1772
1082.431000,1768
1082.431500,1785
1082.432000,1786
1082.432500,1775
1082.433000,1787
1082.433500,1790
1082.434000,1775
1082.434500,1773
1082.435000,1787
1082.435500,1796
1082.436000,1782
1082.436500,1771
1082.437000,1791
1082.437500,1779
1082.438000,1777
1082.438500,1788
1082.439000,1791
1082.439500,1782
1082.440000,1776
1082.440500,1791
1082.441000,1797
1082.441500,1778
1082.442000,1791
1082.442500,1795
1082.443000,1782
1082.443500,1778
1082.444000,1796
1082.444500,1802
1082.445000,1784
1082.445500,1777
1082.446000,1794
1082.446500,1786
1082.447000,1779
1082.447500,1788
1082.448000,1791
1082.448500,1779
1082.449000,1774
1082.449500,1785
1082.450000,1786
1082.450500,1766
1082.451000,1778
1082.451500,1778
1082.452000,1767
1082.452500,1762
1082.453000,1777
1082.453500,1782
1082.454000,1770
1082.454500,1762
1082.455000,1790
1082.455500,1784
1082.456000,1784
1082.456500,1799
1082.457000,1808
1082.457500,1790
1082.458000,1786
1082.458500,1798
1082.459000,1802
1082.459500,1786
1082.460000,1790
1082.460500,1800
1082.461000,1793
1082.461500,1785
1082.462000,1798
1082.462500,1799
1082.463000,1781
1082.463500,1770
1082.464000,1784
1082.464500,1780
1082.465000,1778
1082.465500,1785
1082.466000,1787
1082.466500,1768
1082.467000,1761
1082.467500,1775
1082.468000,1779
1082.468500,1759
1082.469000,1761
1082.469500,1781
1082.470000,1782
1082.470500,1781
1082.471000,1806
1082.471500,1806
1082.472000,1790
1082.472500,1778
1082.473000,1794
1082.473500,1786
1082.474000,1784
1082.474500,1794
1082.475000,1797
1082.475500,1780
1082.476000,1776
1082.476500,1786
1082.477000,1790
1082.477500,1771
1082.478000,1796
1082.478500,1784
1082.479000,1774
1082.479500,1770
1082.480000,1789
1082.480500,1786
1082.481000,1769
1082.481500,1764
1082.482000,1782
1082.482500,1765
1082.483000,1771
1082.483500,1791
1082.484000,1803
1082.484500,1797
1082.485000,1798
1082.485500,1808
1082.486000,1811
1082.486500,1793
1082.487000,1792
1082.487500,1808
1082.488000,1795
1082.488500,1786
1082.489000,1789
1082.489500,1793
1082.490000,1775
1082.490500,1769
1082.491000,1779
1082.491500,1782
1082.492000,1766
1082.492500,1770
1082.493000,1777
1082.493500,1763
1082.494000,1759
1082.494500,1772
1082.495000,1785
1082.495500,1774
1082.496000,1778
1082.496500,1801
1082.497000,1788
1082.497500,1778
1082.498000,1775
1082.498500,1778
1082.499000,1766
1082.499500,1763
1082.500000,1789
1082.500500,1795
1082.501000,1780
1082.501500,1786
1082.502000,1798
1082.502500,1792
1082.503000,1791
1082.503500,1804
1082.504000,1810
1082.504500,1793
1082.505000,1783
1082.505500,1791
1082.506000,1790
1082.506500,1773
1082.507000,1783
1082.507500,1779
1082.508000,1769
1082.508500,1768
1082.509000,1792
1082.509500,1808
1082.510000,1799
1082.510500,1796
1082.511000,1800
1082.511500,1777
1082.512000,1765
1082.512500,1767
1082.513000,1765
1082.513500,1750
1082.514000,1747
1082.514500,1769
1082.515000,1763
1082.515500,1771
1082.516000,1790
1082.516500,1801
1082.517000,1795
1082.517500,1791
1082.518000,1796
1082.518500,1789
1082.519000,1769
1082.519500,1780
1082.520000,1787
1082.520500,1781
1082.521000,1780
1082.521500,1791
1082.522000,1810
1082.522500,1794
1082.523000,1791
1082.523500,1807
1082.524000,1809
1082.524500,1784
1082.525000,1769
1082.525500,1747
1082.526000,1734
1082.526500,1726
1082.527000,1744
1082.527500,1760
1082.528000,1755
1082.528500,1763
1082.529000,1801
1082.529500,1815
1082.530000,1822
1082.530500,1844
1082.531000,1851
1082.531500,1822
1082.532000,1806
1082.532500,1810
1082.533000,1806
1082.533500,1784
1082.534000,1788
1082.534500,1797
1082.535000,1783
1082.535500,1769
1082.536000,1784
1082.536500,1786
1082.537000,1771
1082.537500,1766
1082.538000,1780
1082.538500,1781
1082.539000,1779
1082.539500,1791
1082.540000,1791
1082.540500,1774
1082.541000,1768
1082.541500,1780
1082.542000,1769
1082.542500,1747
1082.543000,1753
1082.543500,1773
1082.544000,1767
1082.544500,1758
1082.545000,1775
1082.545500,1775
1082.546000,1765
1082.546500,1768
1082.547000,1798
1082.547500,1806
1082.548000,1798
1082.548500,1810
1082.549000,1800
1082.549500,1751
1082.550000,1730
1082.550500,1738
1082.551000,1752
1082.551500,1748
1082.552000,1764
1082.552500,1782
1082.553000,1771
1082.553500,1776
1082.554000,1820
1082.554500,1859
1082.555000,1865
1082.555500,1850
1082.556000,1843
1082.556500,1818
1082.557000,1795
1082.557500,1773
1082.558000,1754
1082.558500,1736
1082.559000,1732
1082.559500,1759
1082.560000,1773
1082.560500,1764
1082.561000,1777
1082.561500,1814
1082.562000,1843
1082.562500,1860
1082.563000,1868
1082.563500,1849
1082.564000,1822
1082.564500,1805
1082.565000,1801
1082.565500,1776
1082.566000,1748
1082.566500,1736
1082.567000,1735
1082.567500,1722
1082.568000,1723
1082.568500,1746
1082.569000,1768
1082.569500,1776
1082.570000,1813
1082.570500,1823
1082.571000,1791
1082.571500,1762
1082.572000,1760
1082.572500,1756
1082.573000,1747
1082.573500,1732
1082.574000,1736
1082.574500,1738
1082.575000,1756
1082.575500,1793
1082.576000,1811
1082.576500,1795
1082.577000,1783
1082.577500,1781
1082.578000,1789
1082.578500,1795
1082.579000,1808
1082.579500,1801
1082.580000,1782
1082.580500,1762
1082.581000,1762
1082.581500,1763
1082.582000,1750
1082.582500,1706
1082.583000,1710
1082.583500,1726
1082.584000,1747
1082.584500,1761
1082.585000,1774
1082.585500,1759
1082.586000,1778
1082.586500,1823
1082.587000,1854
1082.587500,1849
1082.588000,1880
1082.588500,1845
1082.589000,1813
1082.589500,1799
1082.590000,1814
1082.590500,1827
1082.591000,1820
1082.591500,1815
1082.592000,1841
1082.592500,1848
1082.593000,1854
1082.593500,1854
1082.594000,1832
1082.594500,1790
1082.595000,1767
1082.595500,1775
1082.596000,1779
1082.596500,1747
1082.597000,1717
1082.597500,1719
1082.598000,1714
1082.598500,1685
1082.599000,1682
1082.599500,1680
1082.600000,1683
1082.600500,1688
1082.601000,1746
1082.601500,1813
1082.602000,1814
1082.602500,1838
1082.603000,1866
1082.603500,1875
1082.604000,1850
1082.604500,1829
1082.605000,1824
1082.605500,1817
1082.606000,1851
1082.606500,1892
1082.607000,1853
1082.607500,1801
1082.608000,1766
1082.608500,1747
1082.609000,1734
1082.609500,1707
1082.610000,1709
1082.610500,1692
1082.611000,1671
1082.611500,1687
1082.612000,1721
1082.612500,1715
1082.613000,1744
1082.613500,1826
1082.614000,1877
1082.614500,1868
1082.615000,1860
1082.615500,1872
1082.616000,1877
1082.616500,1848
1082.617000,1845
1082.617500,1838
1082.618000,1818
1082.618500,1816
1082.619000,1826
1082.619500,1804
1082.620000,1767
1082.620500,1766
1082.621000,1799
1082.621500,1786
1082.622000,1786
1082.622500,1813
1082.623000,1839
1082.623500,1850
1082.624000,1823
1082.624500,1814
1082.625000,1810
1082.625500,1783
1082.626000,1758
1082.626500,1742
1082.627000,1732
1082.627500,1712
1082.628000,1674
1082.628500,1597
1082.629000,1554
1082.629500,1566
1082.630000,1615
1082.630500,1656
1082.631000,1714
1082.631500,1794
1082.632000,1876
1082.632500,1927
1082.633000,1994
1082.633500,1994
1082.634000,1912
1082.634500,1808
1082.635000,1759
1082.635500,1752
1082.636000,1762
1082.636500,1770
1082.637000,1806
1082.637500,1823
1082.638000,1794
1082.638500,1707
1082.639000,1666
1082.639500,1655
1082.640000,1666
1082.640500,1705
1082.641000,1733
1082.641500,1759
1082.642000,1776
1082.642500,1803
1082.643000,1858
1082.643500,1879
1082.644000,1873
1082.644500,1869
1082.645000,1841
1082.645500,1810
1082.646000,1794
1082.646500,1728
1082.647000,1635
1082.647500,1574
1082.648000,1564
1082.648500,1606
1082.649000,1704
1082.649500,1869
1082.650000,1984
1082.650500,2032
1082.651000,2024
1082.651500,1952
1082.652000,1858
1082.652500,1796
1082.653000,1806
1082.653500,1792
1082.654000,1767
1082.654500,1744
1082.655000,1722
1082.655500,1702
1082.656000,1680
1082.656500,1701
1082.657000,1769
1082.657500,1833
1082.658000,1891
1082.658500,1950
1082.659000,1980
1082.659500,2002
1082.660000,1962
1082.660500,1863
1082.661000,1783
1082.661500,1724
1082.662000,1697
1082.662500,1687
1082.663000,1685
1082.663500,1697
1082.664000,1728
1082.664500,1769
1082.665000,1791
1082.665500,1837
1082.666000,1868
1082.666500,1861
1082.667000,1842
1082.667500,1849
1082.668000,1845
1082.668500,1801
1082.669000,1739
1082.669500,1691
1082.670000,1660
1082.670500,1644
1082.671000,1648
1082.671500,1679
1082.672000,1718
1082.672500,1793
1082.673000,1875
1082.673500,1931
1082.674000,1897
1082.674500,1849
1082.675000,1795
1082.675500,1662
1082.676000,1586
1082.676500,1584
1082.677000,1599
1082.677500,1630
1082.678000,1715
1082.678500,1853
1082.679000,1937
1082.679500,1918
1082.680000,1851
1082.680500,1835
1082.681000,1825
1082.681500,1829
1082.682000,1855
1082.682500,1859
1082.683000,1831
1082.683500,1810
1082.684000,1818
1082.684500,1796
1082.685000,1761
1082.685500,1727
1082.686000,1715
1082.686500,1699
1082.687000,1676
1082.687500,1708
1082.688000,1715
1082.688500,1716
1082.689000,1738
1082.689500,1759
1082.690000,1730
1082.690500,1680
1082.691000,1683
1082.691500,1717
1082.692000,1755
1082.692500,1752
1082.693000,1755
1082.693500,1784
1082.694000,1791
1082.694500,1823
1082.695000,1816
1082.695500,1730
1082.696000,1683
1082.696500,1737
1082.697000,1848
1082.697500,1880
1082.698000,1854
1082.698500,1882
1082.699000,1898
1082.699500,1926
1082.700000,1973
1082.700500,1940
1082.701000,1865
1082.701500,1812
1082.702000,1821
1082.702500,1840
1082.703000,1845
1082.703500,1843
1082.704000,1814
1082.704500,1774
1082.705000,1756
1082.705500,1794
1082.706000,1830
1082.706500,1826
1082.707000,1796
1082.707500,1782
1082.708000,1760
1082.708500,1738
1082.709000,1740
1082.709500,1731
1082.710000,1718
1082.710500,1734
1082.711000,1768
1082.711500,1784
1082.712000,1802
1082.712500,1848
1082.713000,1836
1082.713500,1802
1082.714000,1755
1082.714500,1752
1082.715000,1764
1082.715500,1762
1082.716000,1721
1082.716500,1730
1082.717000,1754
1082.717500,1733
1082.718000,1714
1082.718500,1738
1082.719000,1756
1082.719500,1774
1082.720000,1758
1082.720500,1706
1082.721000,1658
1082.721500,1630
1082.722000,1611
1082.722500,1542
1082.723000,1562
1082.723500,1682
1082.724000,1690
1082.724500,1646
1082.725000,1735
1082.725500,1933
1082.726000,2035
1082.726500,2015
1082.727000,2013
1082.727500,1987
1082.728000,1911
1082.728500,1866
1082.729000,1864
1082.729500,1885
1082.730000,1822
1082.730500,1731
1082.731000,1728
1082.731500,1712
1082.732000,1703
1082.732500,1758
1082.733000,1864
1082.733500,1911
1082.734000,1878
1082.734500,1834
1082.735000,1754
1082.735500,1688
1082.736000,1682
1082.736500,1710
1082.737000,1762
1082.737500,1842
1082.738000,1904
1082.738500,1889
1082.739000,1836
1082.739500,1843
1082.740000,1863
1082.740500,1826
1082.741000,1767
1082.741500,1748
1082.742000,1694
1082.742500,1618
1082.743000,1572
1082.743500,1550
1082.744000,1581
1082.744500,1651
1082.745000,1722
1082.745500,1788
1082.746000,1840
1082.746500,1879
1082.747000,1860
1082.747500,1794
1082.748000,1739
1082.748500,1756
1082.749000,1773
1082.749500,1766
1082.750000,1810
1082.750500,1836
1082.751000,1835
1082.751500,1811
1082.752000,1792
1082.752500,1808
1082.753000,1804
1082.753500,1821
1082.754000,1748
1082.754500,1668
1082.755000,1634
1082.755500,1698
1082.756000,1803
1082.756500,1882
1082.757000,1949
1082.757500,2014
1082.758000,1973
1082.758500,1887
1082.759000,1831
1082.759500,1842
1082.760000,1874
1082.760500,1893
1082.761000,1919
1082.761500,1902
1082.762000,1820
1082.762500,1766
1082.763000,1755
1082.763500,1739
1082.764000,1705
1082.764500,1681
1082.765000,1724
1082.765500,1755
1082.766000,1738
1082.766500,1755
1082.767000,1792
1082.767500,1715
1082.768000,1613
1082.768500,1554
1082.769000,1526
1082.769500,1518
1082.770000,1630
1082.770500,1896
1082.771000,2107
1082.771500,2094
1082.772000,1978
1082.772500,1881
1082.773000,1768
1082.773500,1694
1082.774000,1726
1082.774500,1772
1082.775000,1783
1082.775500,1790
1082.776000,1794
1082.776500,1783
1082.777000,1776
1082.777500,1766
1082.778000,1742
1082.778500,1694
1082.779000,1685
1082.779500,1712
1082.780000,1767
1082.780500,1842
1082.781000,1904
1082.781500,1923
1082.782000,1898
1082.782500,1853
1082.783000,1838
1082.783500,1796
1082.784000,1726
1082.784500,1691
1082.785000,1707
1082.785500,1740
1082.786000,1741
1082.786500,1701
1082.787000,1673
1082.787500,1662
1082.788000,1733
1082.788500,1872
1082.789000,1914
1082.789500,1868
1082.790000,1846
1082.790500,1838
1082.791000,1798
1082.791500,1790
1082.792000,1837
1082.792500,1846
1082.793000,1810
1082.793500,1778
1082.794000,1742
1082.794500,1699
1082.795000,1672
1082.795500,1691
1082.796000,1707
1082.796500,1721
1082.797000,1735
1082.797500,1788
1082.798000,1773
1082.798500,1778
1082.799000,1830
1082.799500,1872
1082.800000,1822
1082.800500,1787
1082.801000,1790
1082.801500,1778
1082.802000,1746
1082.802500,1779
1082.803000,1779
1082.803500,1778
1082.804000,1800
1082.804500,1854
1082.805000,1874
1082.805500,1826
1082.806000,1786
1082.806500,1767
1082.807000,1726
1082.807500,1702
1082.808000,1751
1082.808500,1819
1082.809000,1812
1082.809500,1806
1082.810000,1804
1082.810500,1783
1082.811000,1742
1082.811500,1712
1082.812000,1737
1082.812500,1698
1082.813000,1644
1082.813500,1664
1082.814000,1727
1082.814500,1795
1082.815000,1830
1082.815500,1858
1082.816000,1837
1082.816500,1815
1082.817000,1820
1082.817500,1815
1082.818000,1782
1082.818500,1744
1082.819000,1650
1082.819500,1599
1082.820000,1619
1082.820500,1671
1082.821000,1724
1082.821500,1769
1082.822000,1810
1082.822500,1808
1082.823000,1837
1082.823500,1930
1082.824000,2020
1082.824500,2065
1082.825000,1985
1082.825500,1739
1082.826000,1607
1082.826500,1629
1082.827000,1758
1082.827500,1875
1082.828000,1850
1082.828500,1798
1082.829000,1796
1082.829500,1762
1082.830000,1738
1082.830500,1760
1082.831000,1798
1082.831500,1828
1082.832000,1770
1082.832500,1695
1082.833000,1698
1082.833500,1763
1082.834000,1875
1082.834500,1968
1082.835000,2063
1082.835500,2064
1082.836000,1949
1082.836500,1843
1082.837000,1802
1082.837500,1784
1082.838000,1731
1082.838500,1739
1082.839000,1726
1082.839500,1709
1082.840000,1699
1082.840500,1738
1082.841000,1777
1082.841500,1796
1082.842000,1805
1082.842500,1827
1082.843000,1826
1082.843500,1797
1082.844000,1776
1082.844500,1782
1082.845000,1766
1082.845500,1750
1082.846000,1757
1082.846500,1748
1082.847000,1718
1082.847500,1689
1082.848000,1673
1082.848500,1661
1082.849000,1639
1082.849500,1641
1082.850000,1640
1082.850500,1664
1082.851000,1697
1082.851500,1731
1082.852000,1770
1082.852500,1835
1082.853000,1898
1082.853500,1966
1082.854000,2011
1082.854500,1958
1082.855000,1875
1082.855500,1787
1082.856000,1746
1082.856500,1735
1082.857000,1763
1082.857500,1774
1082.858000,1771
1082.858500,1776
1082.859000,1776
1082.859500,1746
1082.860000,1731
1082.860500,1743
1082.861000,1728
1082.861500,1627
1082.862000,1577
1082.862500,1603
1082.863000,1654
1082.863500,1672
1082.864000,1731
1082.864500,1824
1082.865000,1857
1082.865500,1865
1082.866000,1931
1082.866500,1951
1082.867000,1913
1082.867500,1896
1082.868000,1895
1082.868500,1870
1082.869000,1806
1082.869500,1796
1082.870000,1776
1082.870500,1735
1082.871000,1744
1082.871500,1782
1082.872000,1796
1082.872500,1780
1082.873000,1772
1082.873500,1814
1082.874000,1832
1082.874500,1865
1082.875000,1873
1082.875500,1825
1082.876000,1741
1082.876500,1648
1082.877000,1622
1082.877500,1652
1082.878000,1732
1082.878500,1778
1082.879000,1776
1082.879500,1744
1082.880000,1695
1082.880500,1708
1082.881000,1756
1082.881500,1754
1082.882000,1718
1082.882500,1745
1082.883000,1806
1082.883500,1876
1082.884000,1924
1082.884500,1907
1082.885000,1855
1082.885500,1840
1082.886000,1868
1082.886500,1890
1082.887000,1880
1082.887500,1864
1082.888000,1870
1082.888500,1848
1082.889000,1822
1082.889500,1808
1082.890000,1796
1082.890500,1765
1082.891000,1742
1082.891500,1753
1082.892000,1759
1082.892500,1753
1082.893000,1759
1082.893500,1776
1082.894000,1766
1082.894500,1770
1082.895000,1758
1082.895500,1713
1082.896000,1637
1082.896500,1591
1082.897000,1641
1082.897500,1697
1082.898000,1720
1082.898500,1788
1082.899000,1844
1082.899500,1875
1082.900000,1901
1082.900500,1927
1082.901000,1924
1082.901500,1873
1082.902000,1772
1082.902500,1732
1082.903000,1710
1082.903500,1691
1082.904000,1718
1082.904500,1773
1082.905000,1834
1082.905500,1829
1082.906000,1826
1082.906500,1784
1082.907000,1750
1082.907500,1731
1082.908000,1746
1082.908500,1763
1082.909000,1795
1082.909500,1810
1082.910000,1805
1082.910500,1789
1082.911000,1798
1082.911500,1876
1082.912000,1923
1082.912500,1888
1082.913000,1850
1082.913500,1792
1082.914000,1770
1082.914500,1762
1082.915000,1749
1082.915500,1709
1082.916000,1665
1082.916500,1642
1082.917000,1671
1082.917500,1682
1082.918000,1708
1082.918500,1751
1082.919000,1807
1082.919500,1848
1082.920000,1868
1082.920500,1898
1082.921000,1887
1082.921500,1803
1082.922000,1734
1082.922500,1734
1082.923000,1742
1082.923500,1709
1082.924000,1608
1082.924500,1575
1082.925000,1593
1082.925500,1712
1082.926000,1887
1082.926500,1994
1082.927000,1994
1082.927500,1895
1082.928000,1741
1082.928500,1647
1082.929000,1617
1082.929500,1584
1082.930000,1602
1082.930500,1631
1082.931000,1708
1082.931500,1833
1082.932000,1956
1082.932500,1987
1082.933000,1911
1082.933500,1793
1082.934000,1750
1082.934500,1780
1082.935000,1860
1082.935500,1955
1082.936000,1971
1082.936500,1924
1082.937000,1864
1082.937500,1827
1082.938000,1737
1082.938500,1658
1082.939000,1609
1082.939500,1594
1082.940000,1659
1082.940500,1824
1082.941000,1965
1082.941500,1989
1082.942000,1932
1082.942500,1838
1082.943000,1740
1082.943500,1676
1082.944000,1681
1082.944500,1703
1082.945000,1730
1082.945500,1774
1082.946000,1854
1082.946500,1871
1082.947000,1858
1082.947500,1830
1082.948000,1814
1082.948500,1821
1082.949000,1819
1082.949500,1817
1082.950000,1812
1082.950500,1800
1082.951000,1832
1082.951500,1838
1082.952000,1810
1082.952500,1801
1082.953000,1846
1082.953500,1904
1082.954000,1915
1082.954500,1856
1082.955000,1801
1082.955500,1735
1082.956000,1723
1082.956500,1744
1082.957000,1718
1082.957500,1652
1082.958000,1649
1082.958500,1688
1082.959000,1734
1082.959500,1783
1082.960000,1856
1082.960500,1859
1082.961000,1827
1082.961500,1798
1082.962000,1794
1082.962500,1778
1082.963000,1744
1082.963500,1730
1082.964000,1771
1082.964500,1753
1082.965000,1701
1082.965500,1685
1082.966000,1643
1082.966500,1546
1082.967000,1507
1082.967500,1572
1082.968000,1690
1082.968500,1820
1082.969000,1919
1082.969500,1814
1082.970000,1739
1082.970500,1758
1082.971000,1850
1082.971500,1806
1082.972000,1700
1082.972500,1667
1082.973000,1751
1082.973500,1828
1082.974000,1864
1082.974500,1907
1082.975000,1958
1082.975500,2010
1082.976000,1989
1082.976500,1920
1082.977000,1868
1082.977500,1788
1082.978000,1760
1082.978500,1798
1082.979000,1865
1082.979500,1870
1082.980000,1835
1082.980500,1815
1082.981000,1800
1082.981500,1778
1082.982000,1753
1082.982500,1716
1082.983000,1691
1082.983500,1723
1082.984000,1743
1082.984500,1691
1082.985000,1673
1082.985500,1690
1082.986000,1714
1082.986500,1749
1082.987000,1807
1082.987500,1857
1082.988000,1842
1082.988500,1798
1082.989000,1786
1082.989500,1774
1082.990000,1765
1082.990500,1782
1082.991000,1814
1082.991500,1821
1082.992000,1794
1082.992500,1795
1082.993000,1793
1082.993500,1762
1082.994000,1806
1082.994500,1895
1082.995000,1902
1082.995500,1824
1082.996000,1765
1082.996500,1776
1082.997000,1778
1082.997500,1762
1082.998000,1762
1082.998500,1767
1082.999000,1770
1082.999500,1790
1083.000000,1823
1083.000500,1807
1083.001000,1774
1083.001500,1751
1083.002000,1751
1083.002500,1742
1083.003000,1766
1083.003500,1800
1083.004000,1795
1083.004500,1779
1083.005000,1771
1083.005500,1773
1083.006000,1775
1083.006500,1748
1083.007000,1767
1083.007500,1799
1083.008000,1818
1083.008500,1790
1083.009000,1778
1083.009500,1808
1083.010000,1823
1083.010500,1837
1083.011000,1816
1083.011500,1720
1083.012000,1596
1083.012500,1571
1083.013000,1596
1083.013500,1676
1083.014000,1827
1083.014500,1981
1083.015000,1961
1083.015500,1857
1083.016000,1793
1083.016500,1763
1083.017000,1752
1083.017500,1747
1083.018000,1758
1083.018500,1761
1083.019000,1745
1083.019500,1740
1083.020000,1741
1083.020500,1715
1083.021000,1717
1083.021500,1744
1083.022000,1776
1083.022500,1824
1083.023000,1851
1083.023500,1868
1083.024000,1885
1083.024500,1866
1083.025000,1858
1083.025500,1833
1083.026000,1753
1083.026500,1699
1083.027000,1651
1083.027500,1631
1083.028000,1691
1083.028500,1819
1083.029000,1876
1083.029500,1815
1083.030000,1799
1083.030500,1815
1083.031000,1766
1083.031500,1733
1083.032000,1721
1083.032500,1721
1083.033000,1734
1083.033500,1781
1083.034000,1842
1083.034500,1886
1083.035000,1883
1083.035500,1881
1083.036000,1891
1083.036500,1891
1083.037000,1876
1083.037500,1852
1083.038000,1866
1083.038500,1873
1083.039000,1785
1083.039500,1698
1083.040000,1619
1083.040500,1616
1083.041000,1649
1083.041500,1731
1083.042000,1804
1083.042500,1799
1083.043000,1807
1083.043500,1831
1083.044000,1839
1083.044500,1777
1083.045000,1734
1083.045500,1718
1083.046000,1729
1083.046500,1761
1083.047000,1824
1083.047500,1825
1083.048000,1764
1083.048500,1742
1083.049000,1775
1083.049500,1791
1083.050000,1808
1083.050500,1821
1083.051000,1835
1083.051500,1831
1083.052000,1830
1083.052500,1839
1083.053000,1836
1083.053500,1814
1083.054000,1809
1083.054500,1799
1083.055000,1779
1083.055500,1757
1083.056000,1756
1083.056500,1743
1083.057000,1723
1083.057500,1741
1083.058000,1788
1083.058500,1773
1083.059000,1761
1083.059500,1812
1083.060000,1820
1083.060500,1765
1083.061000,1750
1083.061500,1770
1083.062000,1763
1083.062500,1810
1083.063000,1841
1083.063500,1837
1083.064000,1829
1083.064500,1810
1083.065000,1787
1083.065500,1759
1083.066000,1711
1083.066500,1711
1083.067000,1716
1083.067500,1694
1083.068000,1647
1083.068500,1592
1083.069000,1613
1083.069500,1656
1083.070000,1715
1083.070500,1863
1083.071000,1969
1083.071500,1895
1083.072000,1858
1083.072500,1825
1083.073000,1790
1083.073500,1821
1083.074000,1929
1083.074500,1942
1083.075000,1877
1083.075500,1842
1083.076000,1858
1083.076500,1835
1083.077000,1806
1083.077500,1800
1083.078000,1786
1083.078500,1743
1083.079000,1710
1083.079500,1732
1083.080000,1771
1083.080500,1773
1083.081000,1799
1083.081500,1801
1083.082000,1751
1083.082500,1699
1083.083000,1698
1083.083500,1726
1083.084000,1762
1083.084500,1815
1083.085000,1875
1083.085500,1810
1083.086000,1735
1083.086500,1694
1083.087000,1699
1083.087500,1726
1083.088000,1749
1083.088500,1784
1083.089000,1770
1083.089500,1743
1083.090000,1754
1083.090500,1764
1083.091000,1771
1083.091500,1779
1083.092000,1795
1083.092500,1829
1083.093000,1827
1083.093500,1811
1083.094000,1808
1083.094500,1763
1083.095000,1710
1083.095500,1727
1083.096000,1788
1083.096500,1848
1083.097000,1880
1083.097500,1870
1083.098000,1842
1083.098500,1815
1083.099000,1828
1083.099500,1822
1083.100000,1801
1083.100500,1779
1083.101000,1796
1083.101500,1808
1083.102000,1804
1083.102500,1816
1083.103000,1814
1083.103500,1791
1083.104000,1787
1083.104500,1802
1083.105000,1793
1083.105500,1767
1083.106000,1762
1083.106500,1798
1083.107000,1786
1083.107500,1759
1083.108000,1770
1083.108500,1776
1083.109000,1749
1083.109500,1729
1083.110000,1714
1083.110500,1636
1083.111000,1642
1083.111500,1709
1083.112000,1767
1083.112500,1810
1083.113000,1811
1083.113500,1813
1083.114000,1790
1083.114500,1753
1083.115000,1750
1083.115500,1755
1083.116000,1777
1083.116500,1795
1083.117000,1803
1083.117500,1838
1083.118000,1856
1083.118500,1853
1083.119000,1865
1083.119500,1847
1083.120000,1837
1083.120500,1818
1083.121000,1777
1083.121500,1722
1083.122000,1674
1083.122500,1686
1083.123000,1729
1083.123500,1759
1083.124000,1778
1083.124500,1810
1083.125000,1808
1083.125500,1813
1083.126000,1828
1083.126500,1754
1083.127000,1618
1083.127500,1538
1083.128000,1503
1083.128500,1544
1083.129000,1656
1083.129500,1834
1083.130000,2006
1083.130500,2022
1083.131000,1982
1083.131500,1928
1083.132000,1951
1083.132500,1955
1083.133000,1917
1083.133500,1864
1083.134000,1810
1083.134500,1747
1083.135000,1710
1083.135500,1694
1083.136000,1678
1083.136500,1663
1083.137000,1682
1083.137500,1688
1083.138000,1720
1083.138500,1766
1083.139000,1813
1083.139500,1839
1083.140000,1854
1083.140500,1872
1083.141000,1875
1083.141500,1849
1083.142000,1862
1083.142500,1854
1083.143000,1841
1083.143500,1838
1083.144000,1835
1083.144500,1833
1083.145000,1800
1083.145500,1779
1083.146000,1771
1083.146500,1745
1083.147000,1692
1083.147500,1680
1083.148000,1691
1083.148500,1689
1083.149000,1707
1083.149500,1777
1083.150000,1848
1083.150500,1829
1083.151000,1799
1083.151500,1815
1083.152000,1837
1083.152500,1820
1083.153000,1801
1083.153500,1782
1083.154000,1757
1083.154500,1733
1083.155000,1742
1083.155500,1764
1083.156000,1754
1083.156500,1752
1083.157000,1763
1083.157500,1774
1083.158000,1785
1083.158500,1802
1083.159000,1808
1083.159500,1791
1083.160000,1800
1083.160500,1813
1083.161000,1780
1083.161500,1739
1083.162000,1730
1083.162500,1734
1083.163000,1727
1083.163500,1733
1083.164000,1763
1083.164500,1793
1083.165000,1792
1083.165500,1809
1083.166000,1835
1083.166500,1810
1083.167000,1776
1083.167500,1774
1083.168000,1794
1083.168500,1818
1083.169000,1827
1083.169500,1814
1083.170000,1794
1083.170500,1785
1083.171000,1816
1083.171500,1842
1083.172000,1840
1083.172500,1831
1083.173000,1819
1083.173500,1782
1083.174000,1731
1083.174500,1735
1083.175000,1732
1083.175500,1723
1083.176000,1738
1083.176500,1773
1083.177000,1813
1083.177500,1818
1083.178000,1809
1083.178500,1804
1083.179000,1784
1083.179500,1774
1083.180000,1789
1083.180500,1799
1083.181000,1786
1083.181500,1782
1083.182000,1793
1083.182500,1791
1083.183000,1770
1083.183500,1783
1083.184000,1781
1083.184500,1779
1083.185000,1782
1083.185500,1791
1083.186000,1794
1083.186500,1776
1083.187000,1772
1083.187500,1786
1083.188000,1768
1083.188500,1769
1083.189000,1780
1083.189500,1786
1083.190000,1774
1083.190500,1770
1083.191000,1783
1083.191500,1786
1083.192000,1766
1083.192500,1766
1083.193000,1783
1083.193500,1775
1083.194000,1769
1083.194500,1781
1083.195000,1791
1083.195500,1772
1083.196000,1770
1083.196500,1785
1083.197000,1773
1083.197500,1772
1083.198000,1783
1083.198500,1794
1083.199000,1782
1083.199500,1778
1083.200000,1790
1083.200500,1800
1083.201000,1782
1083.201500,1775
1083.202000,1790
1083.202500,1779
1083.203000,1776
1083.203500,1789
1083.204000,1790
1083.204500,1778
1083.205000,1772
1083.205500,1790
1083.206000,1779
1083.206500,1773
1083.207000,1782
1083.207500,1787
1083.208000,1775
1083.208500,1770
1083.209000,1784
1083.209500,1790
1083.210000,1770
1083.210500,1786
1083.211000,1787
1083.211500,1778
1083.212000,1771
1083.212500,1783
1083.213000,1788
1083.213500,1776
1083.214000,1771
1083.214500,1787
1083.215000,1772
1083.215500,1775
1083.216000,1784
1083.216500,1791
1083.217000,1777
1083.217500,1774
1083.218000,1789
1083.218500,1797
1083.219000,1780
1083.219500,1779
1083.220000,1802
1083.220500,1788
1083.221000,1781
1083.221500,1793
1083.222000,1798
1083.222500,1783
1083.223000,1779
1083.223500,1794
1083.224000,1774
1083.224500,1780
1083.225000,1789
1083.225500,1792
1083.226000,1779
1083.226500,1772
1083.227000,1787
1083.227500,1790
1083.228000,1775
1083.228500,1792
1083.229000,1787
1083.229500,1779
1083.230000,1774
1083.230500,1783
1083.231000,1787
1083.231500,1774
1083.232000,1768
1083.232500,1784
1083.233000,1776
1083.233500,1771
1083.234000,1781
1083.234500,1786
1083.235000,1774
1083.235500,1767
1083.236000,1783
1083.236500,1786
1083.237000,1771
1083.237500,1770
1083.238000,1788
1083.238500,1778
1083.239000,1775
1083.239500,1786
1083.240000,1797
1083.240500,1779
1083.241000,1776
1083.241500,1792
1083.242000,1786
1083.242500,1775
1083.243000,1790
1083.243500,1795
1083.244000,1782
1083.244500,1777
1083.245000,1790
1083.245500,1795
1083.246000,1774
1083.246500,1783
1083.247000,1786
1083.247500,1775
1083.248000,1771
1083.248500,1784
1083.249000,1790
1083.249500,1776
1083.250000,1770
1083.250500,1787
1083.251000,1779
1083.251500,1774
1083.252000,1786
1083.252500,1791
1083.253000,1778
1083.253500,1774
1083.254000,1792
1083.254500,1787
1083.255000,1778
1083.255500,1785
1083.256000,1791
1083.256500,1777
1083.257000,1776
1083.257500,1790
1083.258000,1795
1083.258500,1780
1083.259000,1795
1083.259500,1792
1083.260000,1783
1083.260500,1778
1083.261000,1794
1083.261500,1795
1083.262000,1783
1083.262500,1779
1083.263000,1798
1083.263500,1789
1083.264000,1778
1083.264500,1790
1083.265000,1791
1083.265500,1783
1083.266000,1777
1083.266500,1789
1083.267000,1792
1083.267500,1770
1083.268000,1776
1083.268500,1785
1083.269000,1775
1083.269500,1774
1083.270000,1787
1083.270500,1787
1083.271000,1773
1083.271500,1767
1083.272000,1787
1083.272500,1780
1083.273000,1770
1083.273500,1785
1083.274000,1787
1083.274500,1774
1083.275000,1774
1083.275500,1786
1083.276000,1792
1083.276500,1773
1083.277000,1779
1083.277500,1792
1083.278000,1779
1083.278500,1775
1083.279000,1787
1083.279500,1796
1083.280000,1783
1083.280500,1779
1083.281000,1797
1083.281500,1786
1083.282000,1779
1083.282500,1789
1083.283000,1794
1083.283500,1779
1083.284000,1774
1083.284500,1788
1083.285000,1796
1083.285500,1774
1083.286000,1791
1083.286500,1788
1083.287000,1777
1083.287500,1771
1083.288000,1784
1083.288500,1789
1083.289000,1777
1083.289500,1769
1083.290000,1786
1083.290500,1779
1083.291000,1774
1083.291500,1783
1083.292000,1787
1083.292500,1775
1083.293000,1773
1083.293500,1788
1083.294000,1792
1083.294500,1776
1083.295000,1804
1083.295500,1793
1083.296000,1783
1083.296500,1776
1083.297000,1786
1083.297500,1794
1083.298000,1779
1083.298500,1771
1083.299000,1794
1083.299500,1782
1083.300000,1780
1083.300500,1794
1083.301000,1801
1083.301500,1786
1083.302000,1779
1083.302500,1791
1083.303000,1798
1083.303500,1782
1083.304000,1794
1083.304500,1790
1083.305000,1782
1083.305500,1775
1083.306000,1786
1083.306500,1790
1083.307000,1771
1083.307500,1770
1083.308000,1785
1083.308500,1779
1083.309000,1774
1083.309500,1784
1083.310000,1788
1083.310500,1774
1083.311000,1770
1083.311500,1786
1083.312000,1791
1083.312500,1773
1083.313000,1795
1083.313500,1787
1083.314000,1780
1083.314500,1771
1083.315000,1787
1083.315500,1795
1083.316000,1783
1083.316500,1773
1083.317000,1789
1083.317500,1784
1083.318000,1778
1083.318500,1790
1083.319000,1795
1083.319500,1785
1083.320000,1783
1083.320500,1794
1083.321000,1802
1083.321500,1781
1083.322000,1791
1083.322500,1796
1083.323000,1786
1083.323500,1778
1083.324000,1789
1083.324500,1794
1083.325000,1779
1083.325500,1774
1083.326000,1793
1083.326500,1782
1083.327000,1773
1083.327500,1785
1083.328000,1786
1083.328500,1774
1083.329000,1771
1083.329500,1786
1083.330000,1790
1083.330500,1774
1083.331000,1796
1083.331500,1787
1083.332000,1779
1083.332500,1775
1083.333000,1786
1083.333500,1790
1083.334000,1776
1083.334500,1769
1083.335000,1784
1083.335500,1776
1083.336000,1775
1083.336500,1784
1083.337000,1790
1083.337500,1778
1083.338000,1776
1083.338500,1790
1083.339000,1794
1083.339500,1780
1083.340000,1775
1083.340500,1795
1083.341000,1787
1083.341500,1780
1083.342000,1791
1083.342500,1797
1083.343000,1781
1083.343500,1776
1083.344000,1792
1083.344500,1799
1083.345000,1779
1083.345500,1779
1083.346000,1791
1083.346500,1778
1083.347000,1771
1083.347500,1787
1083.348000,1790
1083.348500,1773
1083.349000,1769
1083.349500,1787
1083.350000,1782
1083.350500,1771
1083.351000,1784
1083.351500,1788
1083.352000,1778
1083.352500,1772
1083.353000,1787
1083.353500,1793
1083.354000,1778
1083.354500,1794
1083.355000,1790
1083.355500,1781
1083.356000,1775
1083.356500,1782
1083.357000,1791
1083.357500,1778
1083.358000,1773
1083.358500,1790
1083.359000,1775
1083.359500,1776
1083.360000,1788
1083.360500,1795
1083.361000,1785
1083.361500,1779
1083.362000,1791
1083.362500,1794
1083.363000,1779
1083.363500,1776
1083.364000,1791
1083.364500,1779
1083.365000,1774
1083.365500,1787
1083.366000,1790
1083.366500,1776
1083.367000,1772
1083.367500,1785
1083.368000,1789
1083.368500,1771
1083.369000,1782
1083.369500,1784
1083.370000,1778
1083.370500,1770
1083.371000,1782
1083.371500,1789
1083.372000,1771
1083.372500,1768
1083.373000,1785
1083.373500,1779
1083.374000,1773
1083.374500,1785
1083.375000,1791
1083.375500,1780
1083.376000,1777
1083.376500,1789
1083.377000,1792
1083.377500,1775
1083.378000,1782
1083.378500,1791
1083.379000,1782
1083.379500,1776
1083.380000,1795
1083.380500,1798
1083.381000,1783
1083.381500,1776
1083.382000,1795
1083.382500,1783
1083.383000,1779
1083.383500,1790
1083.384000,1794
1083.384500,1780
1083.385000,1776
1083.385500,1788
1083.386000,1794
1083.386500,1776
1083.387000,1793
1083.387500,1787
1083.388000,1778
1083.388500,1773
1083.389000,1782
1083.389500,1789
1083.390000,1775
1083.390500,1770
1083.391000,1787
1083.391500,1771
1083.392000,1771
1083.392500,1787
1083.393000,1788
1083.393500,1777
1083.394000,1773
1083.394500,1787
1083.395000,1795
1083.395500,1778
1083.396000,1770
1083.396500,1786
1083.397000,1780
1083.397500,1775
1083.398000,1787
1083.398500,1792
1083.399000,1779
1083.399500,1777
1083.400000,1796
1083.400500,1800
1083.401000,1784
1083.401500,1791
1083.402000,1795
1083.402500,1783
1083.403000,1779
1083.403500,1790
1083.404000,1794
1083.404500,1778
1083.405000,1773
1083.405500,1787
1083.406000,1780
1083.406500,1772
1083.407000,1783
1083.407500,1786
1083.408000,1773
1083.408500,1770
1083.409000,1786
1083.409500,1790
1083.410000,1771
1083.410500,1781
1083.411000,1785
1083.411500,1776
1083.412000,1772
1083.412500,1783
1083.413000,1790
1083.413500,1775
1083.414000,1770
1083.414500,1788
1083.415000,1771
1083.415500,1771
1083.416000,1782
1083.416500,1788
1083.417000,1778
1083.417500,1777
1083.418000,1790
1083.418500,1794
1083.419000,1779
1083.419500,1775
1083.420000,1794
1083.420500,1785
1083.421000,1778
1083.421500,1794
1083.422000,1799
1083.422500,1782
1083.423000,1778
1083.423500,1793
1083.424000,1796
1083.424500,1778
1083.425000,1793
1083.425500,1792
1083.426000,1781
1083.426500,1774
1083.427000,1786
1083.427500,1787
1083.428000,1773
1083.428500,1770
1083.429000,1786
1083.429500,1778
1083.430000,1769
1083.430500,1783
1083.431000,1789
1083.431500,1774
1083.432000,1768
1083.432500,1786
1083.433000,1791
1083.433500,1773
1083.434000,1778
1083.434500,1787
1083.435000,1775
1083.435500,1773
1083.436000,1786
1083.436500,1790
1083.437000,1777
1083.437500,1772
1083.438000,1788
1083.438500,1785
1083.439000,1778
1083.439500,1793
1083.440000,1799
1083.440500,1784
1083.441000,1779
1083.441500,1791
1083.442000,1794
1083.442500,1780
1083.443000,1781
1083.443500,1795
1083.444000,1784
1083.444500,1774
1083.445000,1791
1083.445500,1794
1083.446000,1779
1083.446500,1771
1083.447000,1784
1083.447500,1782
1083.448000,1774
1083.448500,1787
1083.449000,1787
1083.449500,1774
1083.450000,1774
1083.450500,1783
1083.451000,1787
1083.451500,1770
1083.452000,1798
1083.452500,1788
1083.453000,1778
1083.453500,1769
1083.454000,1784
1083.454500,1790
1083.455000,1778
1083.455500,1770
1083.456000,1789
1083.456500,1771
1083.457000,1774
1083.457500,1787
1083.458000,1793
1083.458500,1779
1083.459000,1776
1083.459500,1793
1083.460000,1802
1083.460500,1780
1083.461000,1777
1083.461500,1796
1083.462000,1787
1083.462500,1782
1083.463000,1787
1083.463500,1794
1083.464000,1780
1083.464500,1772
1083.465000,1793
1083.465500,1794
1083.466000,1776
1083.466500,1787
1083.467000,1787
1083.467500,1775
1083.468000,1770
1083.468500,1785
1083.469000,1790
1083.469500,1774
1083.470000,1767
1083.470500,1784
1083.471000,1777
1083.471500,1770
1083.472000,1780
1083.472500,1786
1083.473000,1771
1083.473500,1768
1083.474000,1786
1083.474500,1789
1083.475000,1772
1083.475500,1779
1083.476000,1790
1083.476500,1777
1083.477000,1772
1083.477500,1787
1083.478000,1791
1083.478500,1777
1083.479000,1776
1083.479500,1791
1083.480000,1784
1083.480500,1783
1083.481000,1796
1083.481500,1798
1083.482000,1782
1083.482500,1776
1083.483000,1791
1083.483500,1799
1083.484000,1779
1083.484500,1795
1083.485000,1794
1083.485500,1782
1083.486000,1777
1083.486500,1784
1083.487000,1788
1083.487500,1771
1083.488000,1770
1083.488500,1786
1083.489000,1784
1083.489500,1772
1083.490000,1783
1083.490500,1787
1083.491000,1778
1083.491500,1768
1083.492000,1786
1083.492500,1787
1083.493000,1775
1083.493500,1770
1083.494000,1786
1083.494500,1781
1083.495000,1774
1083.495500,1785
1083.496000,1792
1083.496500,1778
1083.497000,1771
1083.497500,1788
1083.498000,1793
1083.498500,1779
1083.499000,1791
1083.499500,1794
1083.500000,1786
1083.500500,1782
1083.501000,1794
1083.501500,1795
1083.502000,1781
1083.502500,1776
1083.503000,1791
1083.503500,1782
1083.504000,1778
1083.504500,1787
1083.505000,1794
1083.505500,1783
1083.506000,1776
1083.506500,1786
1083.507000,1790
1083.507500,1772
1083.508000,1770
1083.508500,1787
1083.509000,1777
1083.509500,1771
1083.510000,1785
1083.510500,1789
1083.511000,1781
1083.511500,1771
1083.512000,1785
1083.512500,1770
1083.513000,1772
1083.513500,1779
1083.514000,1789
1083.514500,1775
1083.515000,1777
1083.515500,1787
1083.516000,1792
1083.516500,1774
1083.517000,1787
1083.517500,1791
1083.518000,1780
1083.518500,1776
1083.519000,1791
1083.519500,1796
1083.520000,1787
1083.520500,1778
1083.521000,1798
1083.521500,1800
1083.522000,1779
1083.522500,1789
1083.523000,1798
1083.523500,1781
1083.524000,1776
1083.524500,1786
1083.525000,1797
1083.525500,1779
1083.526000,1771
1083.526500,1787
1083.527000,1778
1083.527500,1774
1083.528000,1783
1083.528500,1789
1083.529000,1776
1083.529500,1768
1083.530000,1787
1083.530500,1791
1083.531000,1770
1083.531500,1773
1083.532000,1787
1083.532500,1778
1083.533000,1772
1083.533500,1786
1083.534000,1791
1083.534500,1776
1083.535000,1772
1083.535500,1790
1083.536000,1782
1083.536500,1776
1083.537000,1786
1083.537500,1791
1083.538000,1780
1083.538500,1776
1083.539000,1790
1083.539500,1798
1083.540000,1783
1083.540500,1800
1083.541000,1798
1083.541500,1786
1083.542000,1779
1083.542500,1791
1083.543000,1798
1083.543500,1783
1083.544000,1776
1083.544500,1791
1083.545000,1779
1083.545500,1777
1083.546000,1787
1083.546500,1789
1083.547000,1776
1083.547500,1772
1083.548000,1785
1083.548500,1790
1083.549000,1775
1083.549500,1770
1083.550000,1790
1083.550500,1779
1083.551000,1771
1083.551500,1779
1083.552000,1787
1083.552500,1774
1083.553000,1772
1083.553500,1787
1083.554000,1791
1083.554500,1776
1083.555000,1786
1083.555500,1790
1083.556000,1780
1083.556500,1772
1083.557000,1787
1083.557500,1793
1083.558000,1778
1083.558500,1774
1083.559000,1795
1083.559500,1783
1083.560000,1778
1083.560500,1792
1083.561000,1799
1083.561500,1784
1083.562000,1779
1083.562500,1794
1083.563000,1798
1083.563500,1782
1083.564000,1803
1083.564500,1794
1083.565000,1787
1083.565500,1777
1083.566000,1789
1083.566500,1792
1083.567000,1774
1083.567500,1771
1083.568000,1788
1083.568500,1782
1083.569000,1775
1083.569500,1786
1083.570000,1790
1083.570500,1777
1083.571000,1772
1083.571500,1786
1083.572000,1791
1083.572500,1775
1083.573000,1794
1083.573500,1787
1083.574000,1777
1083.574500,1775
1083.575000,1790
1083.575500,1790
1083.576000,1778
1083.576500,1769
1083.577000,1788
1083.577500,1785
1083.578000,1777
1083.578500,1787
1083.579000,1794
1083.579500,1781
1083.580000,1781
1083.580500,1794
1083.581000,1802
1083.581500,1784
1083.582000,1783
1083.582500,1794
1083.583000,1786
1083.583500,1779
1083.584000,1790
1083.584500,1794
1083.585000,1781
1083.585500,1774
1083.586000,1792
1083.586500,1780
1083.587000,1775
1083.587500,1785
1083.588000,1788
1083.588500,1774
1083.589000,1772
1083.589500,1788
1083.590000,1792
1083.590500,1773
1083.591000,1770
1083.591500,1784
1083.592000,1775
1083.592500,1772
1083.593000,1783
1083.593500,1789
1083.594000,1773
1083.594500,1768
1083.595000,1787
1083.595500,1783
1083.596000,1774
1083.596500,1786
1083.597000,1790
1083.597500,1778
1083.598000,1773
1083.598500,1788
1083.599000,1796
1083.599500,1782
1083.600000,1783
1083.600500,1795
1083.601000,1789
1083.601500,1778
1083.602000,1790
1083.602500,1798
1083.603000,1782
1083.603500,1776
1083.604000,1793
1083.604500,1784
1083.605000,1777
1083.605500,1787
1083.606000,1792
1083.606500,1777
1083.607000,1771
1083.607500,1787
1083.608000,1790
1083.608500,1774
1083.609000,1782
1083.609500,1787
1083.610000,1782
1083.610500,1770
1083.611000,1785
1083.611500,1791
1083.612000,1775
1083.612500,1767
1083.613000,1786
1083.613500,1781
1083.614000,1773
1083.614500,1785
1083.615000,1789
1083.615500,1778
1083.616000,1778
1083.616500,1790
1083.617000,1794
1083.617500,1776
1083.618000,1779
1083.618500,1793
1083.619000,1784
1083.619500,1778
1083.620000,1796
1083.620500,1798
1083.621000,1785
1083.621500,1778
1083.622000,1797
1083.622500,1790
1083.623000,1778
1083.623500,1791
1083.624000,1795
1083.624500,1779
1083.625000,1775
1083.625500,1790
1083.626000,1797
1083.626500,1774
1083.627000,1774
1083.627500,1790
1083.628000,1778
1083.628500,1773
1083.629000,1782
1083.629500,1790
1083.630000,1777
1083.630500,1770
1083.631000,1790
1083.631500,1767
1083.632000,1773
1083.632500,1781
1083.633000,1789
1083.633500,1778
1083.634000,1772
1083.634500,1785
1083.635000,1791
1083.635500,1777
1083.636000,1773
1083.636500,1790
1083.637000,1781
1083.637500,1777
1083.638000,1787
1083.638500,1791
1083.639000,1783
1083.639500,1777
1083.640000,1800
1083.640500,1800
1083.641000,1780
1083.641500,1782
1083.642000,1798
1083.642500,1786
1083.643000,1778
1083.643500,1790
1083.644000,1795
1083.644500,1778
1083.645000,1773
1083.645500,1790
1083.646000,1786
1083.646500,1774
1083.647000,1786
1083.647500,1791
1083.648000,1776
1083.648500,1771
1083.649000,1787
1083.649500,1793
1083.650000,1779
1083.650500,1791
1083.651000,1788
1083.651500,1779
1083.652000,1774
1083.652500,1787
1083.653000,1789
1083.653500,1778
1083.654000,1774
1083.654500,1789
1083.655000,1797
1083.655500,1775
1083.656000,1789
1083.656500,1792
1083.657000,1779
1083.657500,1775
1083.658000,1788
1083.658500,1795
1083.659000,1782
1083.659500,1776
1083.660000,1798
1083.660500,1787
1083.661000,1782
1083.661500,1794
1083.662000,1794
1083.662500,1783
1083.663000,1779
1083.663500,1791
1083.664000,1796
1083.664500,1779
1083.665000,1779
1083.665500,1791
1083.666000,1780
1083.666500,1774
1083.667000,1783
1083.667500,1790
1083.668000,1774
1083.668500,1770
1083.669000,1788
1083.669500,1775
1083.670000,1773
1083.670500,1781
1083.671000,1787
1083.671500,1776
1083.672000,1771
1083.672500,1784
1083.673000,1791
1083.673500,1774
1083.674000,1771
1083.674500,1789
1083.675000,1782
1083.675500,1773
1083.676000,1787
1083.676500,1790
1083.677000,1777
1083.677500,1774
1083.678000,1789
1083.678500,1796
1083.679000,1778
1083.679500,1791
1083.680000,1798
1083.680500,1784
1083.681000,1780
1083.681500,1791
1083.682000,1798
1083.682500,1783
1083.683000,1776
1083.683500,1791
1083.684000,1784
1083.684500,1776
1083.685000,1790
1083.685500,1794
1083.686000,1779
1083.686500,1771
1083.687000,1787
1083.687500,1791
1083.688000,1772
1083.688500,1786
1083.689000,1788
1083.689500,1778
1083.690000,1774
1083.690500,1787
1083.691000,1789
1083.691500,1773
1083.692000,1768
1083.692500,1786
1083.693000,1777
1083.693500,1774
1083.694000,1783
1083.694500,1792
1083.695000,1778
1083.695500,1774
1083.696000,1791
1083.696500,1790
1083.697000,1776
1083.697500,1787
1083.698000,1791
1083.698500,1782
1083.699000,1779
1083.699500,1791
1083.700000,1804
1083.700500,1785
1083.701000,1781
1083.701500,1795
1083.702000,1780
1083.702500,1779
1083.703000,1787
1083.703500,1796
1083.704000,1781
1083.704500,1776
1083.705000,1793
1083.705500,1794
1083.706000,1779
1083.706500,1789
1083.707000,1786
1083.707500,1778
1083.708000,1772
1083.708500,1782
1083.709000,1788
1083.709500,1776
1083.710000,1774
1083.710500,1785
1083.711000,1791
1083.711500,1770
1083.712000,1784
1083.712500,1786
1083.713000,1777
1083.713500,1771
1083.714000,1787
1083.714500,1792
1083.715000,1774
1083.715500,1773
1083.716000,1790
1083.716500,1779
1083.717000,1775
1083.717500,1786
1083.718000,1794
1083.718500,1781
1083.719000,1778
1083.719500,1792
1083.720000,1800
1083.720500,1784
1083.721000,1787
1083.721500,1795
1083.722000,1787
1083.722500,1780
1083.723000,1794
1083.723500,1795
1083.724000,1778
1083.724500,1774
1083.725000,1792
1083.725500,1782
1083.726000,1778
1083.726500,1786
1083.727000,1790
1083.727500,1777
1083.728000,1771
1083.728500,1787
1083.729000,1791
1083.729500,1774
1083.730000,1791
1083.730500,1788
1083.731000,1781
1083.731500,1773
1083.732000,1783
1083.732500,1790
1083.733000,1775
1083.733500,1773
1083.734000,1790
1083.734500,1777
1083.735000,1775
1083.735500,1784
1083.736000,1792
1083.736500,1779
1083.737000,1778
1083.737500,1791
1083.738000,1795
1083.738500,1776
1083.739000,1796
1083.739500,1796
1083.740000,1792
1083.740500,1779
1083.741000,1794
1083.741500,1798
1083.742000,1783
1083.742500,1775
1083.743000,1794
1083.743500,1781
1083.744000,1778
1083.744500,1786
1083.745000,1794
1083.745500,1780
1083.746000,1774
1083.746500,1787
1083.747000,1792
1083.747500,1775
1083.748000,1796
1083.748500,1788
1083.749000,1779
1083.749500,1772
1083.750000,1782
1083.750500,1790
1083.751000,1774
1083.751500,1768
1083.752000,1787
1083.752500,1782
1083.753000,1771
1083.753500,1785
1083.754000,1789
1083.754500,1778
1083.755000,1773
1083.755500,1791
1083.756000,1792
1083.756500,1775
1083.757000,1798
1083.757500,1794
1083.758000,1782
1083.758500,1778
1083.759000,1787
1083.759500,1795
1083.760000,1785
1083.760500,1778
1083.761000,1795
1083.761500,1776
1083.762000,1779
1083.762500,1787
1083.763000,1794
1083.763500,1784
1083.764000,1777
1083.764500,1790
1083.765000,1795
1083.765500,1778
1083.766000,1773
1083.766500,1790
1083.767000,1779
1083.767500,1775
1083.768000,1783
1083.768500,1788
1083.769000,1774
1083.769500,1770
1083.770000,1789
1083.770500,1790
1083.771000,1775
1083.771500,1791
1083.772000,1787
1083.772500,1778
1083.773000,1772
1083.773500,1784
1083.774000,1791
1083.774500,1776
1083.775000,1771
1083.775500,1790
1083.776000,1775
1083.776500,1775
1083.777000,1783
1083.777500,1791
1083.778000,1782
1083.778500,1775
1083.779000,1791
1083.779500,1797
1083.780000,1780
1083.780500,1777
1083.781000,1796
1083.781500,1786
1083.782000,1779
1083.782500,1790
1083.783000,1796
1083.783500,1784
1083.784000,1778
1083.784500,1792
1083.785000,1797
1083.785500,1778
1083.786000,1785
1083.786500,1791
1083.787000,1774
1083.787500,1770
1083.788000,1787
1083.788500,1791
1083.789000,1776
1083.789500,1771
1083.790000,1789
1083.790500,1780
1083.791000,1773
1083.791500,1784
1083.792000,1787
1083.792500,1778
1083.793000,1771
1083.793500,1787
1083.794000,1793
1083.794500,1775
1083.795000,1778
1083.795500,1790
1083.796000,1782
1083.796500,1774
1083.797000,1786
1083.797500,1791
1083.798000,1779
1083.798500,1774
1083.799000,1790
1083.799500,1788
1083.800000,1779
1083.800500,1791
1083.801000,1799
1083.801500,1783
1083.802000,1779
1083.802500,1794
1083.803000,1798
1083.803500,1779
1083.804000,1781
1083.804500,1795
1083.805000,1780
1083.805500,1778
1083.806000,1791
1083.806500,1794
1083.807000,1777
1083.807500,1772
1083.808000,1786
1083.808500,1782
1083.809000,1775
1083.809500,1784
1083.810000,1790
1083.810500,1776
1083.811000,1771
1083.811500,1786
1083.812000,1792
1083.812500,1773
1083.813000,1772
1083.813500,1790
1083.814000,1777
1083.814500,1772
1083.815000,1785
1083.815500,1790
1083.816000,1776
1083.816500,1770
1083.817000,1788
1083.817500,1782
1083.818000,1777
1083.818500,1787
1083.819000,1794
1083.819500,1784
1083.820000,1780
1083.820500,1794
1083.821000,1798
1083.821500,1781
1083.822000,1802
1083.822500,1796
1083.823000,1785
1083.823500,1779
1083.824000,1790
1083.824500,1795
1083.825000,1779
1083.825500,1773
1083.826000,1790
1083.826500,1784
1083.827000,1776
1083.827500,1783
1083.828000,1788
1083.828500,1778
1083.829000,1774
1083.829500,1787
1083.830000,1795
1083.830500,1776
1083.831000,1797
1083.831500,1788
1083.832000,1778
1083.832500,1774
1083.833000,1786
1083.833500,1790
1083.834000,1780
1083.834500,1774
1083.835000,1791
1083.835500,1778
1083.836000,1774
1083.836500,1784
1083.837000,1793
1083.837500,1781
1083.838000,1775
1083.838500,1790
1083.839000,1795
1083.839500,1782
1083.840000,1778
1083.840500,1794
1083.841000,1786
1083.841500,1778
1083.842000,1791
1083.842500,1795
1083.843000,1784
1083.843500,1778
1083.844000,1794
1083.844500,1796
1083.845000,1778
1083.845500,1787
1083.846000,1791
1083.846500,1778
1083.847000,1771
1083.847500,1787
1083.848000,1792
1083.848500,1775
1083.849000,1770
1083.849500,1786
1083.850000,1779
1083.850500,1772
1083.851000,1787
1083.851500,1788
1083.852000,1776
1083.852500,1771
1083.853000,1788
1083.853500,1791
1083.854000,1774
1083.854500,1777
1083.855000,1792
1083.855500,1785
1083.856000,1776
1083.856500,1790
1083.857000,1792
1083.857500,1780
1083.858000,1775
1083.858500,1791
1083.859000,1783
1083.859500,1780
1083.860000,1799
1083.860500,1797
1083.861000,1787
1083.861500,1779
1083.862000,1795
1083.862500,1800
1083.863000,1781
1083.863500,1786
1083.864000,1794
1083.864500,1783
1083.865000,1778
1083.865500,1788
1083.866000,1794
1083.866500,1776
1083.867000,1771
1083.867500,1786
1083.868000,1781
1083.868500,1774
1083.869000,1786
1083.869500,1790
1083.870000,1781
1083.870500,1772
1083.871000,1789
1083.871500,1790
1083.872000,1774
1083.872500,1776
1083.873000,1790
1083.873500,1779
1083.874000,1774
1083.874500,1786
1083.875000,1796
1083.875500,1780
1083.876000,1774
1083.876500,1787
1083.877000,1781
1083.877500,1777
1083.878000,1786
1083.878500,1795
1083.879000,1781
1083.879500,1775
1083.880000,1795
1083.880500,1798
1083.881000,1782
1083.881500,1790
1083.882000,1797
1083.882500,1783
1083.883000,1778
1083.883500,1791
1083.884000,1794
1083.884500,1779
1083.885000,1774
1083.885500,1790
1083.886000,1782
1083.886500,1774
1083.887000,1785
1083.887500,1789
1083.888000,1773
1083.888500,1771
1083.889000,1786
1083.889500,1792
1083.890000,1774
1083.890500,1786
1083.891000,1788
1083.891500,1778
1083.892000,1774
1083.892500,1787
1083.893000,1790
1083.893500,1775
1083.894000,1770
1083.894500,1790
1083.895000,1779
1083.895500,1775
1083.896000,1787
1083.896500,1792
1083.897000,1778
1083.897500,1774
1083.898000,1790
1083.898500,1787
1083.899000,1778
1083.899500,1787
1083.900000,1800
1083.900500,1786
1083.901000,1781
1083.901500,1793
1083.902000,1797
1083.902500,1781
1083.903000,1789
1083.903500,1797
1083.904000,1786
1083.904500,1778
1083.905000,1788
1083.905500,1794
1083.906000,1779
1083.906500,1773
1083.907000,1789
1083.907500,1774
1083.908000,1771
1083.908500,1784
1083.909000,1790
1083.909500,1778
1083.910000,1768
1083.910500,1787
1083.911000,1794
1083.911500,1773
1083.912000,1770
1083.912500,1788
1083.913000,1778
1083.913500,1772
1083.914000,1786
1083.914500,1788
1083.915000,1779
1083.915500,1772
1083.916000,1788
1083.916500,1792
1083.917000,1776
1083.917500,1788
1083.918000,1791
1083.918500,1781
1083.919000,1779
1083.919500,1791
1083.920000,1805
1083.920500,1785
1083.921000,1779
1083.921500,1795
1083.922000,1787
1083.922500,1782
1083.923000,1791
1083.923500,1796
1083.924000,1782
1083.924500,1776
1083.925000,1796
1083.925500,1774
1083.926000,1777
1083.926500,1783
1083.927000,1790
1083.927500,1773
1083.928000,1771
1083.928500,1788
1083.929000,1792
1083.929500,1774
1083.930000,1786
1083.930500,1789
1083.931000,1780
1083.931500,1768
1083.932000,1784
1083.932500,1790
1083.933000,1776
1083.933500,1773
1083.934000,1790
1083.934500,1789
1083.935000,1786
1083.935500,1785
1083.936000,1795
1083.936500,1779
1083.937000,1774
1083.937500,1790
1083.938000,1794
1083.938500,1780
1083.939000,1788
1083.939500,1795
1083.940000,1787
1083.940500,1779
1083.941000,1795
1083.941500,1799
1083.942000,1783
1083.942500,1778
1083.943000,1795
1083.943500,1777
1083.944000,1780
1083.944500,1786
1083.945000,1791
1083.945500,1779
1083.946000,1777
1083.946500,1787
1083.947000,1790
1083.947500,1775
1083.948000,1778
1083.948500,1789
1083.949000,1782
1083.949500,1772
1083.950000,1790
1083.950500,1790
1083.951000,1776
1083.951500,1772
1083.952000,1788
1083.952500,1782
1083.953000,1773
1083.953500,1786
1083.954000,1790
1083.954500,1779
1083.955000,1774
1083.955500,1789
1083.956000,1794
1083.956500,1777
1083.957000,1772
1083.957500,1790
1083.958000,1782
1083.958500,1776
1083.959000,1792
1083.959500,1795
1083.960000,1786
1083.960500,1779
1083.961000,1798
1083.961500,1799
1083.962000,1779
1083.962500,1786
1083.963000,1794
1083.963500,1780
1083.964000,1778
1083.964500,1791
1083.965000,1797
1083.965500,1779
1083.966000,1774
1083.966500,1787
1083.967000,1779
1083.967500,1771
1083.968000,1781
1083.968500,1790
1083.969000,1774
1083.969500,1773
1083.970000,1790
1083.970500,1794
1083.971000,1774
1083.971500,1786
1083.972000,1787
1083.972500,1778
1083.973000,1774
1083.973500,1787
1083.974000,1793
1083.974500,1776
1083.975000,1787
1083.975500,1791
1083.976000,1782
1083.976500,1777
1083.977000,1787
1083.977500,1793
1083.978000,1781
1083.978500,1773
1083.979000,1791
1083.979500,1786
1083.980000,1784
1083.980500,1790
1083.981000,1798
1083.981500,1782
1083.982000,1776
1083.982500,1794
1083.983000,1797
1083.983500,1782
1083.984000,1783
1083.984500,1793
1083.985000,1782
1083.985500,1777
1083.986000,1788
1083.986500,1793
1083.987000,1778
1083.987500,1770
1083.988000,1787
1083.988500,1781
1083.989000,1772
1083.989500,1783
1083.990000,1794
1083.990500,1778
1083.991000,1773
1083.991500,1788
1083.992000,1792
1083.992500,1774
1083.993000,1776
1083.993500,1789
1083.994000,1779
1083.994500,1773
1083.995000,1788
1083.995500,1795
1083.996000,1779
1083.996500,1773
1083.997000,1792
1083.997500,1783
1083.998000,1777
1083.998500,1790
1083.999000,1795
1083.999500,1782
1084.000000,1781
1084.000500,1795
1084.001000,1803
1084.001500,1784
1084.002000,1781
1084.002500,1796
1084.003000,1786
1084.003500,1782
1084.004000,1791
1084.004500,1795
1084.005000,1784
1084.005500,1774
1084.006000,1791
1084.006500,1782
1084.007000,1774
1084.007500,1786
1084.008000,1790
1084.008500,1776
1084.009000,1770
1084.009500,1784
1084.010000,1793
1084.010500,1776
1084.011000,1775
1084.011500,1787
1084.012000,1778
1084.012500,1774
1084.013000,1786
1084.013500,1790
1084.014000,1778
1084.014500,1774
1084.015000,1789
1084.015500,1783
1084.016000,1776
1084.016500,1784
1084.017000,1790
1084.017500,1778
1084.018000,1775
1084.018500,1791
1084.019000,1797
1084.019500,1778
1084.020000,1791
1084.020500,1795
1084.021000,1789
1084.021500,1781
1084.022000,1794
1084.022500,1799
1084.023000,1779
1084.023500,1776
1084.024000,1793
1084.024500,1782
1084.025000,1778
1084.025500,1792
1084.026000,1795
1084.026500,1779
1084.027000,1773
1084.027500,1789
1084.028000,1793
1084.028500,1775
1084.029000,1790
1084.029500,1791
1084.030000,1779
1084.030500,1775
1084.031000,1786
1084.031500,1790
1084.032000,1774
1084.032500,1773
1084.033000,1786
1084.033500,1782
1084.034000,1774
1084.034500,1786
1084.035000,1795
1084.035500,1778
1084.036000,1774
1084.036500,1787
1084.037000,1796
1084.037500,1778
1084.038000,1788
1084.038500,1794
1084.039000,1784
1084.039500,1779
1084.040000,1795
1084.040500,1798
1084.041000,1783
1084.041500,1780
1084.042000,1797
1084.042500,1786
1084.043000,1780
1084.043500,1793
1084.044000,1794
1084.044500,1782
1084.045000,1774
1084.045500,1794
1084.046000,1784
1084.046500,1773
1084.047000,1785
1084.047500,1788
1084.048000,1776
1084.048500,1774
1084.049000,1785
1084.049500,1793
1084.050000,1772
1084.050500,1795
1084.051000,1787
1084.051500,1778
1084.052000,1772
1084.052500,1784
1084.053000,1789
1084.053500,1778
1084.054000,1773
1084.054500,1786
1084.055000,1785
1084.055500,1777
1084.056000,1787
1084.056500,1790
1084.057000,1780
1084.057500,1774
1084.058000,1788
1084.058500,1794
1084.059000,1780
1084.059500,1779
1084.060000,1797
1084.060500,1788
1084.061000,1785
1084.061500,1791
1084.062000,1797
1084.062500,1783
1084.063000,1779
1084.063500,1792
1084.064000,1783
1084.064500,1777
1084.065000,1787
1084.065500,1795
1084.066000,1779
1084.066500,1771
1084.067000,1788
1084.067500,1789
1084.068000,1774
1084.068500,1783
1084.069000,1786
1084.069500,1775
1084.070000,1774
1084.070500,1786
1084.071000,1793
1084.071500,1774
1084.072000,1790
1084.072500,1789
1084.073000,1778
1084.073500,1774
1084.074000,1785
1084.074500,1790
1084.075000,1779
1084.075500,1774
1084.076000,1791
1084.076500,1782
1084.077000,1775
1084.077500,1786
1084.078000,1791
1084.078500,1781
1084.079000,1778
1084.079500,1793
1084.080000,1804
1084.080500,1779
1084.081000,1792
1084.081500,1794
1084.082000,1783
1084.082500,1778
1084.083000,1794
1084.083500,1797
1084.084000,1781
1084.084500,1776
1084.085000,1793
1084.085500,1784
1084.086000,1778
1084.086500,1786
1084.087000,1790
1084.087500,1776
1084.088000,1770
1084.088500,1787
1084.089000,1791
1084.089500,1774
1084.090000,1787
1084.090500,1787
1084.091000,1776
1084.091500,1770
1084.092000,1782
1084.092500,1790
1084.093000,1775
1084.093500,1770
1084.094000,1788
1084.094500,1780
1084.095000,1775
1084.095500,1786
1084.096000,1791
1084.096500,1778
1084.097000,1772
1084.097500,1790
1084.098000,1775
1084.098500,1778
1084.099000,1786
1084.099500,1794
1084.100000,1790
1084.100500,1779
1084.101000,1795
1084.101500,1797
1084.102000,1784
1084.102500,1801
1084.103000,1798
1084.103500,1787
1084.104000,1779
1084.104500,1790
1084.105000,1798
1084.105500,1780
1084.106000,1774
1084.106500,1790
1084.107000,1783
1084.107500,1774
1084.108000,1785
1084.108500,1788
1084.109000,1777
1084.109500,1771
1084.110000,1787
1084.110500,1790
1084.111000,1773
1084.111500,1788
1084.112000,1790
1084.112500,1779
1084.113000,1775
1084.113500,1786
1084.114000,1792
1084.114500,1774
1084.115000,1782
1084.115500,1791
1084.116000,1782
1084.116500,1776
1084.117000,1788
1084.117500,1793
1084.118000,1777
1084.118500,1774
1084.119000,1790
1084.119500,1776
1084.120000,1783
1084.120500,1789
1084.121000,1799
1084.121500,1781
1084.122000,1780
1084.122500,1795
1084.123000,1796
1084.123500,1779
1084.124000,1795
1084.124500,1793
1084.125000,1780
1084.125500,1776
1084.126000,1786
1084.126500,1790
1084.127000,1777
1084.127500,1774
1084.128000,1786
1084.128500,1770
1084.129000,1772
1084.129500,1782
1084.130000,1789
1084.130500,1777
1084.131000,1773
1084.131500,1787
1084.132000,1790
1084.132500,1774
1084.133000,1771
1084.133500,1789
1084.134000,1782
1084.134500,1776
1084.135000,1789
1084.135500,1795
1084.136000,1778
1084.136500,1774
1084.137000,1791
1084.137500,1767
1084.138000,1777
1084.138500,1786
1084.139000,1794
1084.139500,1784
1084.140000,1782
1084.140500,1797
1084.141000,1800
1084.141500,1782
1084.142000,1802
1084.142500,1794
1084.143000,1787
1084.143500,1778
1084.144000,1787
1084.144500,1796
1084.145000,1778
1084.145500,1773
1084.146000,1791
1084.146500,1774
1084.147000,1771
1084.147500,1782
1084.148000,1787
1084.148500,1776
1084.149000,1774
1084.149500,1787
1084.150000,1790
1084.150500,1773
1084.151000,1787
1084.151500,1787
1084.152000,1778
1084.152500,1771
1084.153000,1784
1084.153500,1790
1084.154000,1779
1084.154500,1773
1084.155000,1786
1084.155500,1794
1084.156000,1778
1084.156500,1787
1084.157000,1791
1084.157500,1780
1084.158000,1777
1084.158500,1791
1084.159000,1796
1084.159500,1784
1084.160000,1779
1084.160500,1797
1084.161000,1789
1084.161500,1778
1084.162000,1791
1084.162500,1795
1084.163000,1781
1084.163500,1778
1084.164000,1791
1084.164500,1797
1084.165000,1778
1084.165500,1791
1084.166000,1793
1084.166500,1778
1084.167000,1774
1084.167500,1785
1084.168000,1790
1084.168500,1774
1084.169000,1770
1084.169500,1789
1084.170000,1783
1084.170500,1771
1084.171000,1783
1084.171500,1787
1084.172000,1776
1084.172500,1770
1084.173000,1786
1084.173500,1789
1084.174000,1774
1084.174500,1777
1084.175000,1795
1084.175500,1780
1084.176000,1775
1084.176500,1786
1084.177000,1790
1084.177500,1777
1084.178000,1774
1084.178500,1791
1084.179000,1784
1084.179500,1779
1084.180000,1795
1084.180500,1798
1084.181000,1786
1084.181500,1782
1084.182000,1794
1084.182500,1798
1084.183000,1782
1084.183500,1797
1084.184000,1792
1084.184500,1781
1084.185000,1777
1084.185500,1788
1084.186000,1792
1084.186500,1775
1084.187000,1771
1084.187500,1788
1084.188000,1775
1084.188500,1774
1084.189000,1782
1084.189500,1788
1084.190000,1778
1084.190500,1769
1084.191000,1785
1084.191500,1792
1084.192000,1776
1084.192500,1789
1084.193000,1788
1084.193500,1780
1084.194000,1773
1084.194500,1783
1084.195000,1794
1084.195500,1780
1084.196000,1776
1084.196500,1792
1084.197000,1780
1084.197500,1778
1084.198000,1789
1084.198500,1791
1084.199000,1783
1084.199500,1779
1084.200000,1799
1084.200500,1799
1084.201000,1784
1084.201500,1786
1084.202000,1796
1084.202500,1786
1084.203000,1781
1084.203500,1790
1084.204000,1796
1084.204500,1780
1084.205000,1775
1084.205500,1790
1084.206000,1776
1084.206500,1773
1084.207000,1782
1084.207500,1787
1084.208000,1775
1084.208500,1770
1084.209000,1788
1084.209500,1791
1084.210000,1776
1084.210500,1794
1084.211000,1787
1084.211500,1779
1084.212000,1771
1084.212500,1784
1084.213000,1787
1084.213500,1778
1084.214000,1772
1084.214500,1786
1084.215000,1777
1084.215500,1774
1084.216000,1786
1084.216500,1791
1084.217000,1778
1084.217500,1774
1084.218000,1788
1084.218500,1796
1084.219000,1779
1084.219500,1804
1084.220000,1795
1084.220500,1789
1084.221000,1781
1084.221500,1791
1084.222000,1797
1084.222500,1783
1084.223000,1778
1084.223500,1791
1084.224000,1784
1084.224500,1779
1084.225000,1789
1084.225500,1796
1084.226000,1781
1084.226500,1772
1084.227000,1789
1084.227500,1791
1084.228000,1776
1084.228500,1787
1084.229000,1790
1084.229500,1777
1084.230000,1771
1084.230500,1786
1084.231000,1792
1084.231500,1774
1084.232000,1771
1084.232500,1787
1084.233000,1782
1084.233500,1775
1084.234000,1786
1084.234500,1792
