# Subject: 
# Trial: 
# Notes: 
# Muscles: Ch1
# fs=2000 Hz, nch=1, vref=3.3 V
t_s,ch1_code
8.435000,3667
8.435500,2149
8.436000,0
8.436500,0
8.437000,0
8.437500,0
8.438000,0
8.438500,0
8.439000,0
8.439500,0
8.440000,0
8.440500,0
8.441000,0
8.441500,0
8.442000,0
8.442500,0
8.443000,0
8.443500,0
8.444000,0
8.444500,0
8.445000,0
8.445500,3671
8.446000,3672
8.446500,3666
8.447000,3660
8.447500,3661
8.448000,3664
8.448500,3664
8.449000,3665
8.449500,3666
8.450000,3669
8.450500,3667
8.451000,3668
8.451500,3663
8.452000,3665
8.452500,3666
8.453000,3668
8.453500,3666
8.454000,3667
8.454500,3664
8.455000,3663
8.455500,0
8.456000,0
8.456500,0
8.457000,0
8.457500,0
8.458000,0
8.458500,0
8.459000,0
8.459500,0
8.460000,0
8.460500,0
8.461000,0
8.461500,0
8.462000,0
8.462500,0
8.463000,0
8.463500,0
8.464000,0
8.464500,0
8.465000,0
8.465500,3666
8.466000,3669
8.466500,3667
8.467000,3665
8.467500,3663
8.468000,3662
8.468500,3663
8.469000,3663
8.469500,3663
8.470000,3664
8.470500,3667
8.471000,3667
8.471500,3665
8.472000,3664
8.472500,3666
8.473000,3664
8.473500,3665
8.474000,3664
8.474500,3665
8.475000,3667
8.475500,0
8.476000,0
8.476500,0
8.477000,0
8.477500,0
8.478000,0
8.478500,0
8.479000,0
8.479500,0
8.480000,0
8.480500,0
8.481000,0
8.481500,0
8.482000,0
8.482500,0
8.483000,0
8.483500,0
8.484000,0
8.484500,0
8.485000,0
8.485500,3669
8.486000,3667
8.486500,3662
8.487000,3661
8.487500,3662
8.488000,3664
8.488500,3665
8.489000,3663
8.489500,3664
8.490000,3675
8.490500,3667
8.491000,3667
8.491500,3666
8.492000,3664
8.492500,3666
8.493000,3666
8.493500,3668
8.494000,3667
8.494500,3665
8.495000,3672
8.495500,0
8.496000,0
8.496500,0
8.497000,0
8.497500,0
8.498000,0
8.498500,0
8.499000,0
8.499500,0
8.500000,0
8.500500,0
8.501000,0
8.501500,0
8.502000,0
8.502500,0
8.503000,0
8.503500,0
8.504000,0
8.504500,0
8.505000,0
8.505500,3666
8.506000,3668
8.506500,3663
8.507000,3664
8.507500,3661
8.508000,3663
8.508500,3661
8.509000,3661
8.509500,3663
8.510000,3664
8.510500,3668
8.511000,3667
8.511500,3666
8.512000,3667
8.512500,3667
8.513000,3667
8.513500,3666
8.514000,3666
8.514500,3665
8.515000,3666
8.515500,0
8.516000,0
8.516500,0
8.517000,0
8.517500,0
8.518000,0
8.518500,0
8.519000,0
8.519500,0
8.520000,0
8.520500,0
8.521000,0
8.521500,0
8.522000,0
8.522500,0
8.523000,0
8.523500,0
8.524000,0
8.524500,0
8.525000,0
8.525500,3668
8.526000,3669
8.526500,3666
8.527000,3664
8.527500,3661
8.528000,3662
8.528500,3664
8.529000,3665
8.529500,3666
8.530000,3673
8.530500,3669
8.531000,3668
8.531500,3665
8.532000,3664
8.532500,3664
8.533000,3667
8.533500,3667
8.534000,3667
8.534500,3665
8.535000,3669
8.535500,0
8.536000,0
8.536500,0
8.537000,0
8.537500,0
8.538000,0
8.538500,0
8.539000,0
8.539500,0
8.540000,0
8.540500,0
8.541000,0
8.541500,0
8.542000,0
8.542500,0
8.543000,0
8.543500,0
8.544000,0
8.544500,0
8.545000,0
8.545500,3666
8.546000,3665
8.546500,3664
8.547000,3662
8.547500,3659
8.548000,3665
8.548500,3666
8.549000,3665
8.549500,3665
8.550000,3666
8.550500,3663
8.551000,3667
8.551500,3665
8.552000,3667
8.552500,3666
8.553000,3664
8.553500,3666
8.554000,3667
8.554500,3664
8.555000,3672
8.555500,369
8.556000,0
8.556500,0
8.557000,0
8.557500,0
8.558000,0
8.558500,0
8.559000,0
8.559500,0
8.560000,0
8.560500,0
8.561000,0
8.561500,0
8.562000,0
8.562500,0
8.563000,0
8.563500,0
8.564000,0
8.564500,0
8.565000,0
8.565500,3669
8.566000,3670
8.566500,3666
8.567000,3662
8.567500,3662
8.568000,3662
8.568500,3662
8.569000,3663
8.569500,3664
8.570000,3668
8.570500,3667
8.571000,3670
8.571500,3665
8.572000,3667
8.572500,3664
8.573000,3664
8.573500,3666
8.574000,3665
8.574500,3666
8.575000,3671
8.575500,49
8.576000,0
8.576500,0
8.577000,0
8.577500,0
8.578000,0
8.578500,0
8.579000,0
8.579500,0
8.580000,0
8.580500,0
8.581000,0
8.581500,0
8.582000,0
8.582500,0
8.583000,0
8.583500,0
8.584000,0
8.584500,0
8.585000,0
8.585500,3669
8.586000,3668
8.586500,3665
8.587000,3663
8.587500,3662
8.588000,3663
8.588500,3665
8.589000,3667
8.589500,3666
8.590000,3666
8.590500,3666
8.591000,3668
8.591500,3664
8.592000,3664
8.592500,3665
8.593000,3665
8.593500,3664
8.594000,3667
8.594500,3666
8.595000,3672
8.595500,1456
8.596000,0
8.596500,0
8.597000,0
8.597500,0
8.598000,0
8.598500,0
8.599000,0
8.599500,0
8.600000,0
8.600500,0
8.601000,0
8.601500,0
8.602000,0
8.602500,0
8.603000,0
8.603500,0
8.604000,0
8.604500,0
8.605000,0
8.605500,3670
8.606000,3675
8.606500,3666
8.607000,3664
8.607500,3665
8.608000,3664
8.608500,3664
8.609000,3665
8.609500,3664
8.610000,3669
8.610500,3666
8.611000,3669
8.611500,3666
8.612000,3665
8.612500,3667
8.613000,3666
8.613500,3664
8.614000,3664
8.614500,3667
8.615000,3667
8.615500,2059
8.616000,0
8.616500,0
8.617000,0
8.617500,0
8.618000,0
8.618500,0
8.619000,0
8.619500,0
8.620000,0
8.620500,0
8.621000,0
8.621500,0
8.622000,0
8.622500,0
8.623000,0
8.623500,0
8.624000,0
8.624500,0
8.625000,0
8.625500,3673
8.626000,3675
8.626500,3663
8.627000,3662
8.627500,3659
8.628000,3663
8.628500,3665
8.629000,3666
8.629500,3664
8.630000,3664
8.630500,3669
8.631000,3669
8.631500,3665
8.632000,3666
8.632500,3665
8.633000,3667
8.633500,3666
8.634000,3668
8.634500,3666
8.635000,3671
8.635500,2549
8.636000,0
8.636500,0
8.637000,0
8.637500,0
8.638000,0
8.638500,0
8.639000,0
8.639500,0
8.640000,0
8.640500,0
8.641000,0
8.641500,0
8.642000,0
8.642500,0
8.643000,0
8.643500,0
8.644000,0
8.644500,0
8.645000,0
8.645500,3665
8.646000,3667
8.646500,3666
8.647000,3663
8.647500,3664
8.648000,3661
8.648500,3665
8.649000,3662
8.649500,3665
8.650000,3669
8.650500,3673
8.651000,3673
8.651500,3669
8.652000,3666
8.652500,3666
8.653000,3664
8.653500,3665
8.654000,3667
8.654500,3665
8.655000,3663
8.655500,3168
8.656000,0
8.656500,0
8.657000,0
8.657500,0
8.658000,0
8.658500,0
8.659000,0
8.659500,0
8.660000,0
8.660500,0
8.661000,0
8.661500,0
8.662000,0
8.662500,0
8.663000,0
8.663500,0
8.664000,0
8.664500,0
8.665000,0
8.665500,3669
8.666000,3669
8.666500,3666
8.667000,3663
8.667500,3659
8.668000,3661
8.668500,3665
8.669000,3666
8.669500,3665
8.670000,3668
8.670500,3669
8.671000,3667
8.671500,3665
8.672000,3663
8.672500,3664
8.673000,3667
8.673500,3665
8.674000,3668
8.674500,3664
8.675000,3665
8.675500,2790
8.676000,0
8.676500,0
8.677000,0
8.677500,0
8.678000,0
8.678500,0
8.679000,0
8.679500,0
8.680000,0
8.680500,0
8.681000,0
8.681500,0
8.682000,0
8.682500,0
8.683000,0
8.683500,0
8.684000,0
8.684500,0
8.685000,367
8.685500,3665
8.686000,3667
8.686500,3664
8.687000,3663
8.687500,3665
8.688000,3664
8.688500,3666
8.689000,3662
8.689500,3661
8.690000,3670
8.690500,3667
8.691000,3668
8.691500,3666
8.692000,3666
8.692500,3666
8.693000,3667
8.693500,3667
8.694000,3663
8.694500,3665
8.695000,3671
8.695500,3666
8.696000,0
8.696500,0
8.697000,0
8.697500,0
8.698000,0
8.698500,0
8.699000,0
8.699500,0
8.700000,0
8.700500,0
8.701000,0
8.701500,0
8.702000,0
8.702500,0
8.703000,0
8.703500,0
8.704000,0
8.704500,0
8.705000,0
8.705500,3665
8.706000,3671
8.706500,3666
8.707000,3661
8.707500,3661
8.708000,3663
8.708500,3663
8.709000,3664
8.709500,3665
8.710000,3662
8.710500,3668
8.711000,3669
8.711500,3666
8.712000,3666
8.712500,3664
8.713000,3664
8.713500,3666
8.714000,3664
8.714500,3664
8.715000,3669
8.715500,1851
8.716000,0
8.716500,0
8.717000,0
8.717500,0
8.718000,0
8.718500,0
8.719000,0
8.719500,0
8.720000,0
8.720500,0
8.721000,0
8.721500,0
8.722000,0
8.722500,0
8.723000,0
8.723500,0
8.724000,0
8.724500,0
8.725000,0
8.725500,3665
8.726000,3668
8.726500,3661
8.727000,3662
8.727500,3663
8.728000,3662
8.728500,3663
8.729000,3665
8.729500,3662
8.730000,3669
8.730500,3664
8.731000,3664
8.731500,3666
8.732000,3667
8.732500,3668
8.733000,3665
8.733500,3667
8.734000,3668
8.734500,3664
8.735000,3663
8.735500,2868
8.736000,0
8.736500,0
8.737000,0
8.737500,0
8.738000,0
8.738500,0
8.739000,0
8.739500,0
8.740000,0
8.740500,0
8.741000,0
8.741500,0
8.742000,0
8.742500,0
8.743000,0
8.743500,0
8.744000,0
8.744500,0
8.745000,0
8.745500,3671
8.746000,3671
8.746500,3666
8.747000,3662
8.747500,3663
8.748000,3664
8.748500,3664
8.749000,3662
8.749500,3662
8.750000,3669
8.750500,3667
8.751000,3670
8.751500,3666
8.752000,3667
8.752500,3664
8.753000,3666
8.753500,3666
8.754000,3663
8.754500,3666
8.755000,3668
8.755500,3669
8.756000,0
8.756500,0
8.757000,0
8.757500,0
8.758000,0
8.758500,0
8.759000,0
8.759500,0
8.760000,0
8.760500,0
8.761000,0
8.761500,0
8.762000,0
8.762500,0
8.763000,0
8.763500,0
8.764000,0
8.764500,0
8.765000,0
8.765500,3666
8.766000,3667
8.766500,3665
8.767000,3662
8.767500,3660
8.768000,3661
8.768500,3665
8.769000,3663
8.769500,3666
8.770000,3663
8.770500,3666
8.771000,3667
8.771500,3663
8.772000,3666
8.772500,3665
8.773000,3667
8.773500,3667
8.774000,3665
8.774500,3665
8.775000,3671
8.775500,3672
8.776000,0
8.776500,0
8.777000,0
8.777500,0
8.778000,0
8.778500,0
8.779000,0
8.779500,0
8.780000,0
8.780500,0
8.781000,0
8.781500,0
8.782000,0
8.782500,0
8.783000,0
8.783500,0
8.784000,0
8.784500,0
8.785000,0
8.785500,3665
8.786000,3667
8.786500,3666
8.787000,3663
8.787500,3662
8.788000,3664
8.788500,3659
8.789000,3661
8.789500,3665
8.790000,3662
8.790500,3666
8.791000,3667
8.791500,3665
8.792000,3668
8.792500,3667
8.793000,3666
8.793500,3667
8.794000,3666
8.794500,3667
8.795000,3674
8.795500,3670
8.796000,0
8.796500,0
8.797000,0
8.797500,0
8.798000,0
8.798500,0
8.799000,0
8.799500,0
8.800000,0
8.800500,0
8.801000,0
8.801500,0
8.802000,0
8.802500,0
8.803000,0
8.803500,0
8.804000,0
8.804500,0
8.805000,0
8.805500,3666
8.806000,3670
8.806500,3666
8.807000,3663
8.807500,3661
8.808000,3662
8.808500,3663
8.809000,3665
8.809500,3664
8.810000,3662
8.810500,3667
8.811000,3668
8.811500,3665
8.812000,3664
8.812500,3662
8.813000,3666
8.813500,3666
8.814000,3668
8.814500,3665
8.815000,3673
8.815500,3669
8.816000,0
8.816500,0
8.817000,0
8.817500,0
8.818000,0
8.818500,0
8.819000,0
8.819500,0
8.820000,0
8.820500,0
8.821000,0
8.821500,0
8.822000,0
8.822500,0
8.823000,0
8.823500,0
8.824000,0
8.824500,0
8.825000,0
8.825500,3666
8.826000,3667
8.826500,3662
8.827000,3665
8.827500,3661
8.828000,3665
8.828500,3665
8.829000,3664
8.829500,3664
8.830000,3661
8.830500,3667
8.831000,3668
8.831500,3668
8.832000,3664
8.832500,3669
8.833000,3667
8.833500,3664
8.834000,3668
8.834500,3667
8.835000,3665
8.835500,3671
8.836000,0
8.836500,0
8.837000,0
8.837500,0
8.838000,0
8.838500,0
8.839000,0
8.839500,0
8.840000,0
8.840500,0
8.841000,0
8.841500,0
8.842000,0
8.842500,0
8.843000,0
8.843500,0
8.844000,0
8.844500,0
8.845000,0
8.845500,3663
8.846000,3672
8.846500,3664
8.847000,3662
8.847500,3663
8.848000,3660
8.848500,3663
8.849000,3661
8.849500,3663
8.850000,3665
8.850500,3665
8.851000,3669
8.851500,3666
8.852000,3666
8.852500,3663
8.853000,3664
8.853500,3663
8.854000,3667
8.854500,3668
8.855000,3670
8.855500,3665
8.856000,0
8.856500,0
8.857000,0
8.857500,0
8.858000,0
8.858500,0
8.859000,0
8.859500,0
8.860000,0
8.860500,0
8.861000,0
8.861500,0
8.862000,0
8.862500,0
8.863000,0
8.863500,0
8.864000,0
8.864500,0
8.865000,0
8.865500,3665
8.866000,3668
8.866500,3663
8.867000,3663
8.867500,3661
8.868000,3663
8.868500,3665
8.869000,3666
8.869500,3666
8.870000,3666
8.870500,3664
8.871000,3667
8.871500,3663
8.872000,3666
8.872500,3667
8.873000,3666
8.873500,3667
8.874000,3667
8.874500,3666
8.875000,3666
8.875500,3666
8.876000,0
8.876500,0
8.877000,0
8.877500,0
8.878000,0
8.878500,0
8.879000,0
8.879500,0
8.880000,0
8.880500,0
8.881000,0
8.881500,0
8.882000,0
8.882500,0
8.883000,0
8.883500,0
8.884000,0
8.884500,0
8.885000,0
8.885500,3664
8.886000,3670
8.886500,3664
8.887000,3663
8.887500,3662
8.888000,3664
8.888500,3663
8.889000,3662
8.889500,3663
8.890000,3669
8.890500,3667
8.891000,3667
8.891500,3668
8.892000,3668
8.892500,3667
8.893000,3667
8.893500,3664
8.894000,3664
8.894500,3666
8.895000,3667
8.895500,3666
8.896000,0
8.896500,0
8.897000,0
8.897500,0
8.898000,0
8.898500,0
8.899000,0
8.899500,0
8.900000,0
8.900500,0
8.901000,0
8.901500,0
8.902000,0
8.902500,0
8.903000,0
8.903500,0
8.904000,0
8.904500,0
8.905000,0
8.905500,3304
8.906000,3670
8.906500,3667
8.907000,3664
8.907500,3659
8.908000,3664
8.908500,3662
8.909000,3665
8.909500,3664
8.910000,3671
8.910500,3667
8.911000,3669
8.911500,3664
8.912000,3666
8.912500,3663
8.913000,3665
8.913500,3666
8.914000,3667
8.914500,3667
8.915000,3669
8.915500,3671
8.916000,0
8.916500,0
8.917000,0
8.917500,0
8.918000,0
8.918500,0
8.919000,0
8.919500,0
8.920000,0
8.920500,0
8.921000,0
8.921500,0
8.922000,0
8.922500,0
8.923000,0
8.923500,0
8.924000,0
8.924500,0
8.925000,0
8.925500,3650
8.926000,3666
8.926500,3665
8.927000,3665
8.927500,3662
8.928000,3666
8.928500,3665
8.929000,3664
8.929500,3663
8.930000,3669
8.930500,3665
8.931000,3667
8.931500,3665
8.932000,3668
8.932500,3664
8.933000,3669
8.933500,3665
8.934000,3665
8.934500,3664
8.935000,3661
8.935500,3665
8.936000,0
8.936500,0
8.937000,0
8.937500,0
8.938000,0
8.938500,0
8.939000,0
8.939500,0
8.940000,0
8.940500,0
8.941000,0
8.941500,0
8.942000,0
8.942500,0
8.943000,0
8.943500,0
8.944000,0
8.944500,0
8.945000,421
8.945500,2957
8.946000,3670
8.946500,3667
8.947000,3665
8.947500,3662
8.948000,3660
8.948500,3662
8.949000,3664
8.949500,3664
8.950000,3664
8.950500,3665
8.951000,3667
8.951500,3667
8.952000,3664
8.952500,3663
8.953000,3665
8.953500,3665
8.954000,3664
8.954500,3667
8.955000,3672
8.955500,3669
8.956000,0
8.956500,0
8.957000,0
8.957500,0
8.958000,0
8.958500,0
8.959000,0
8.959500,0
8.960000,0
8.960500,0
8.961000,0
8.961500,0
8.962000,0
8.962500,0
8.963000,0
8.963500,0
8.964000,0
8.964500,0
8.965000,0
8.965500,2003
8.966000,3667
8.966500,3664
8.967000,3662
8.967500,3661
8.968000,3663
8.968500,3663
8.969000,3665
8.969500,3664
8.970000,3667
8.970500,3672
8.971000,3672
8.971500,3663
8.972000,3666
8.972500,3667
8.973000,3665
8.973500,3666
8.974000,3667
8.974500,3667
8.975000,3670
8.975500,3673
8.976000,0
8.976500,0
8.977000,0
8.977500,0
8.978000,0
8.978500,0
8.979000,0
8.979500,0
8.980000,0
8.980500,0
8.981000,0
8.981500,0
8.982000,0
8.982500,0
8.983000,0
8.983500,0
8.984000,0
8.984500,0
8.985000,0
8.985500,1655
8.986000,3669
8.986500,3666
8.987000,3666
8.987500,3662
8.988000,3661
8.988500,3663
8.989000,3664
8.989500,3662
8.990000,3667
8.990500,3667
8.991000,3667
8.991500,3667
8.992000,3667
8.992500,3666
8.993000,3666
8.993500,3665
8.994000,3666
8.994500,3667
8.995000,3671
8.995500,3674
8.996000,0
8.996500,0
8.997000,0
8.997500,0
8.998000,0
8.998500,0
8.999000,0
8.999500,0
9.000000,0
9.000500,0
9.001000,0
9.001500,0
9.002000,0
9.002500,0
9.003000,0
9.003500,0
9.004000,0
9.004500,0
9.005000,0
9.005500,1429
9.006000,3674
9.006500,3664
9.007000,3664
9.007500,3662
9.008000,3662
9.008500,3666
9.009000,3663
9.009500,3666
9.010000,3673
9.010500,3667
9.011000,3667
9.011500,3665
9.012000,3667
9.012500,3664
9.013000,3667
9.013500,3666
9.014000,3668
9.014500,3664
9.015000,3666
9.015500,3667
9.016000,0
9.016500,0
9.017000,0
9.017500,0
9.018000,0
9.018500,0
9.019000,0
9.019500,0
9.020000,0
9.020500,0
9.021000,0
9.021500,0
9.022000,0
9.022500,0
9.023000,0
9.023500,0
9.024000,0
9.024500,0
9.025000,0
9.025500,1107
9.026000,3670
9.026500,3666
9.027000,3667
9.027500,3661
9.028000,3660
9.028500,3659
9.029000,3661
9.029500,3665
9.030000,3673
9.030500,3666
9.031000,3669
9.031500,3665
9.032000,3666
9.032500,3665
9.033000,3664
9.033500,3666
9.034000,3665
9.034500,3666
9.035000,3664
9.035500,3669
9.036000,0
9.036500,0
9.037000,0
9.037500,0
9.038000,0
9.038500,0
9.039000,0
9.039500,0
9.040000,0
9.040500,0
9.041000,0
9.041500,0
9.042000,0
9.042500,0
9.043000,0
9.043500,0
9.044000,0
9.044500,0
9.045000,0
9.045500,1019
9.046000,3670
9.046500,3664
9.047000,3665
9.047500,3661
9.048000,3663
9.048500,3664
9.049000,3664
9.049500,3666
9.050000,3661
9.050500,3667
9.051000,3668
9.051500,3662
9.052000,3666
9.052500,3664
9.053000,3668
9.053500,3664
9.054000,3667
9.054500,3668
9.055000,3668
9.055500,3665
9.056000,0
9.056500,0
9.057000,0
9.057500,0
9.058000,0
9.058500,0
9.059000,0
9.059500,0
9.060000,0
9.060500,0
9.061000,0
9.061500,0
9.062000,0
9.062500,0
9.063000,0
9.063500,0
9.064000,0
9.064500,0
9.065000,0
9.065500,1208
9.066000,3669
9.066500,3664
9.067000,3665
9.067500,3664
9.068000,3664
9.068500,3664
9.069000,3664
9.069500,3661
9.070000,3672
9.070500,3665
9.071000,3668
9.071500,3666
9.072000,3665
9.072500,3665
9.073000,3667
9.073500,3666
9.074000,3663
9.074500,3665
9.075000,3667
9.075500,3667
9.076000,0
9.076500,0
9.077000,0
9.077500,0
9.078000,0
9.078500,0
9.079000,0
9.079500,0
9.080000,0
9.080500,0
9.081000,0
9.081500,0
9.082000,0
9.082500,0
9.083000,0
9.083500,0
9.084000,0
9.084500,0
9.085000,0
9.085500,1166
9.086000,3667
9.086500,3662
9.087000,3662
9.087500,3659
9.088000,3659
9.088500,3663
9.089000,3666
9.089500,3667
9.090000,3669
9.090500,3664
9.091000,3665
9.091500,3665
9.092000,3664
9.092500,3666
9.093000,3668
9.093500,3667
9.094000,3667
9.094500,3666
9.095000,3664
9.095500,3665
9.096000,0
9.096500,0
9.097000,0
9.097500,0
9.098000,0
9.098500,0
9.099000,0
9.099500,0
9.100000,0
9.100500,0
9.101000,0
9.101500,0
9.102000,0
9.102500,0
9.103000,0
9.103500,0
9.104000,0
9.104500,0
9.105000,0
9.105500,0
9.106000,3669
9.106500,3664
9.107000,3664
9.107500,3661
9.108000,3663
9.108500,3663
9.109000,3665
9.109500,3665
9.110000,3662
9.110500,3665
9.111000,3669
9.111500,3667
9.112000,3664
9.112500,3666
9.113000,3663
9.113500,3664
9.114000,3664
9.114500,3664
9.115000,3668
9.115500,3670
9.116000,0
9.116500,0
9.117000,0
9.117500,0
9.118000,0
9.118500,0
9.119000,0
9.119500,0
9.120000,0
9.120500,0
9.121000,0
9.121500,0
9.122000,0
9.122500,0
9.123000,0
9.123500,0
9.124000,0
9.124500,0
9.125000,0
9.125500,563
9.126000,3669
9.126500,3662
9.127000,3661
9.127500,3659
9.128000,3663
9.128500,3664
9.129000,3665
9.129500,3665
9.130000,3662
9.130500,3669
9.131000,3666
9.131500,3666
9.132000,3664
9.132500,3667
9.133000,3667
9.133500,3665
9.134000,3666
9.134500,3667
9.135000,3665
9.135500,3674
9.136000,0
9.136500,0
9.137000,0
9.137500,0
9.138000,0
9.138500,0
9.139000,0
9.139500,0
9.140000,0
9.140500,0
9.141000,0
9.141500,0
9.142000,0
9.142500,0
9.143000,0
9.143500,0
9.144000,0
9.144500,0
9.145000,0
9.145500,452
9.146000,3673
9.146500,3666
9.147000,3666
9.147500,3661
9.148000,3663
9.148500,3663
9.149000,3662
9.149500,3664
9.150000,3670
9.150500,3668
9.151000,3669
9.151500,3667
9.152000,3664
9.152500,3666
9.153000,3662
9.153500,3664
9.154000,3667
9.154500,3667
9.155000,3665
9.155500,3669
9.156000,0
9.156500,0
9.157000,0
9.157500,0
9.158000,0
9.158500,0
9.159000,0
9.159500,0
9.160000,0
9.160500,0
9.161000,0
9.161500,0
9.162000,0
9.162500,0
9.163000,0
9.163500,0
9.164000,0
9.164500,0
9.165000,0
9.165500,327
9.166000,3675
9.166500,3662
9.167000,3664
9.167500,3661
9.168000,3662
9.168500,3665
9.169000,3666
9.169500,3663
9.170000,3667
9.170500,3665
9.171000,3665
9.171500,3664
9.172000,3664
9.172500,3666
9.173000,3667
9.173500,3666
9.174000,3663
9.174500,3667
9.175000,3668
9.175500,3664
9.176000,0
9.176500,0
9.177000,0
9.177500,0
9.178000,0
9.178500,0
9.179000,0
9.179500,0
9.180000,0
9.180500,0
9.181000,0
9.181500,0
9.182000,0
9.182500,0
9.183000,0
9.183500,0
9.184000,0
9.184500,0
9.185000,0
9.185500,26
9.186000,3667
9.186500,3666
9.187000,3664
9.187500,3661
9.188000,3664
9.188500,3664
9.189000,3661
9.189500,3664
9.190000,3666
9.190500,3667
9.191000,3667
9.191500,3664
9.192000,3665
9.192500,3665
9.193000,3665
9.193500,3667
9.194000,3665
9.194500,3666
9.195000,3673
9.195500,3665
9.196000,0
9.196500,0
9.197000,0
9.197500,0
9.198000,0
9.198500,0
9.199000,0
9.199500,0
9.200000,0
9.200500,0
9.201000,0
9.201500,0
9.202000,0
9.202500,0
9.203000,0
9.203500,0
9.204000,0
9.204500,0
9.205000,0
9.205500,0
9.206000,3673
9.206500,3665
9.207000,3663
9.207500,3661
9.208000,3659
9.208500,3663
9.209000,3663
9.209500,3664
9.210000,3662
9.210500,3667
9.211000,3667
9.211500,3665
9.212000,3665
9.212500,3666
9.213000,3666
9.213500,3667
9.214000,3665
9.214500,3667
9.215000,3667
9.215500,3667
9.216000,0
9.216500,0
9.217000,0
9.217500,0
9.218000,0
9.218500,0
9.219000,0
9.219500,0
9.220000,0
9.220500,0
9.221000,0
9.221500,0
9.222000,0
9.222500,0
9.223000,0
9.223500,0
9.224000,0
9.224500,0
9.225000,0
9.225500,0
9.226000,3669
9.226500,3664
9.227000,3667
9.227500,3661
9.228000,3664
9.228500,3663
9.229000,3664
9.229500,3663
9.230000,3666
9.230500,3667
9.231000,3667
9.231500,3665
9.232000,3666
9.232500,3666
9.233000,3666
9.233500,3667
9.234000,3663
9.234500,3665
9.235000,3673
9.235500,3673
9.236000,0
9.236500,0
9.237000,0
9.237500,0
9.238000,0
9.238500,0
9.239000,0
9.239500,0
9.240000,0
9.240500,0
9.241000,0
9.241500,0
9.242000,0
9.242500,0
9.243000,0
9.243500,0
9.244000,0
9.244500,0
9.245000,0
9.245500,0
9.246000,3667
9.246500,3663
9.247000,3662
9.247500,3660
9.248000,3661
9.248500,3662
9.249000,3666
9.249500,3664
9.250000,3663
9.250500,3666
9.251000,3668
9.251500,3664
9.252000,3666
9.252500,3666
9.253000,3667
9.253500,3666
9.254000,3665
9.254500,3667
9.255000,3666
9.255500,3668
9.256000,0
9.256500,0
9.257000,0
9.257500,0
9.258000,0
9.258500,0
9.259000,0
9.259500,0
9.260000,0
9.260500,0
9.261000,0
9.261500,0
9.262000,0
9.262500,0
9.263000,0
9.263500,0
9.264000,0
9.264500,0
9.265000,0
9.265500,378
9.266000,3674
9.266500,3666
9.267000,3666
9.267500,3664
9.268000,3663
9.268500,3666
9.269000,3663
9.269500,3667
9.270000,3669
9.270500,3668
9.271000,3669
9.271500,3666
9.272000,3667
9.272500,3666
9.273000,3665
9.273500,3663
9.274000,3662
9.274500,3666
9.275000,3672
9.275500,3673
9.276000,0
9.276500,0
9.277000,0
9.277500,0
9.278000,0
9.278500,0
9.279000,0
9.279500,0
9.280000,0
9.280500,0
9.281000,0
9.281500,0
9.282000,0
9.282500,0
9.283000,0
9.283500,0
9.284000,0
9.284500,0
9.285000,0
9.285500,571
9.286000,3670
9.286500,3666
9.287000,3665
9.287500,3663
9.288000,3663
9.288500,3662
9.289000,3664
9.289500,3666
9.290000,3674
9.290500,3667
9.291000,3669
9.291500,3664
9.292000,3665
9.292500,3665
9.293000,3667
9.293500,3666
9.294000,3669
9.294500,3668
9.295000,3673
9.295500,3667
9.296000,0
9.296500,0
9.297000,0
9.297500,0
9.298000,0
9.298500,0
9.299000,0
9.299500,0
9.300000,0
9.300500,0
9.301000,0
9.301500,0
9.302000,0
9.302500,0
9.303000,0
9.303500,0
9.304000,0
9.304500,0
9.305000,0
9.305500,983
9.306000,3669
9.306500,3664
9.307000,3665
9.307500,3665
9.308000,3661
9.308500,3662
9.309000,3661
9.309500,3666
9.310000,3664
9.310500,3665
9.311000,3667
9.311500,3664
9.312000,3665
9.312500,3667
9.313000,3665
9.313500,3665
9.314000,3667
9.314500,3663
9.315000,3673
9.315500,3666
9.316000,0
9.316500,0
9.317000,0
9.317500,0
9.318000,0
9.318500,0
9.319000,0
9.319500,0
9.320000,0
9.320500,0
9.321000,0
9.321500,0
9.322000,0
9.322500,0
9.323000,0
9.323500,0
9.324000,0
9.324500,0
9.325000,354
9.325500,358
9.326000,3670
9.326500,3666
9.327000,3663
9.327500,3661
9.328000,3662
9.328500,3662
9.329000,3662
9.329500,3667
9.330000,3663
9.330500,3668
9.331000,3666
9.331500,3667
9.332000,3667
9.332500,3664
9.333000,3666
9.333500,3663
9.334000,3664
9.334500,3669
9.335000,3675
9.335500,3666
9.336000,0
9.336500,0
9.337000,0
9.337500,0
9.338000,0
9.338500,0
9.339000,0
9.339500,0
9.340000,0
9.340500,0
9.341000,0
9.341500,0
9.342000,0
9.342500,0
9.343000,0
9.343500,0
9.344000,0
9.344500,0
9.345000,0
9.345500,697
9.346000,3669
9.346500,3662
9.347000,3665
9.347500,3662
9.348000,3663
9.348500,3665
9.349000,3662
9.349500,3666
9.350000,3672
9.350500,3664
9.351000,3665
9.351500,3665
9.352000,3666
9.352500,3665
9.353000,3667
9.353500,3666
9.354000,3665
9.354500,3666
9.355000,3671
9.355500,3672
9.356000,0
9.356500,0
9.357000,0
9.357500,0
9.358000,0
9.358500,0
9.359000,0
9.359500,0
9.360000,0
9.360500,0
9.361000,0
9.361500,0
9.362000,0
9.362500,0
9.363000,0
9.363500,0
9.364000,0
9.364500,0
9.365000,0
9.365500,1228
9.366000,3670
9.366500,3664
9.367000,3666
9.367500,3665
9.368000,3663
9.368500,3665
9.369000,3663
9.369500,3665
9.370000,3663
9.370500,3667
9.371000,3668
9.371500,3665
9.372000,3665
9.372500,3667
9.373000,3663
9.373500,3668
9.374000,3664
9.374500,3665
9.375000,3673
9.375500,3667
9.376000,0
9.376500,0
9.377000,0
9.377500,0
9.378000,0
9.378500,0
9.379000,0
9.379500,0
9.380000,0
9.380500,0
9.381000,0
9.381500,0
9.382000,0
9.382500,0
9.383000,0
9.383500,0
9.384000,0
9.384500,0
9.385000,0
9.385500,0
9.386000,3673
9.386500,3664
9.387000,3661
9.387500,3660
9.388000,3659
9.388500,3662
9.389000,3662
9.389500,3667
9.390000,3661
9.390500,3673
9.391000,3674
9.391500,3666
9.392000,3665
9.392500,3664
9.393000,3666
9.393500,3669
9.394000,3667
9.394500,3669
9.395000,3665
9.395500,3667
9.396000,0
9.396500,0
9.397000,0
9.397500,0
9.398000,0
9.398500,0
9.399000,0
9.399500,0
9.400000,0
9.400500,0
9.401000,0
9.401500,0
9.402000,0
9.402500,0
9.403000,0
9.403500,0
9.404000,0
9.404500,0
9.405000,0
9.405500,0
9.406000,3667
9.406500,3667
9.407000,3664
9.407500,3664
9.408000,3662
9.408500,3664
9.409000,3662
9.409500,3664
9.410000,3670
9.410500,3667
9.411000,3666
9.411500,3667
9.412000,3666
9.412500,3668
9.413000,3665
9.413500,3666
9.414000,3666
9.414500,3665
9.415000,3667
9.415500,3667
9.416000,0
9.416500,0
9.417000,0
9.417500,0
9.418000,0
9.418500,0
9.419000,0
9.419500,0
9.420000,0
9.420500,0
9.421000,0
9.421500,0
9.422000,0
9.422500,0
9.423000,0
9.423500,0
9.424000,0
9.424500,0
9.425000,0
9.425500,0
9.426000,3672
9.426500,3665
9.427000,3662
9.427500,3665
9.428000,3663
9.428500,3662
9.429000,3664
9.429500,3664
9.430000,3675
9.430500,3666
9.431000,3666
9.431500,3664
9.432000,3663
9.432500,3666
9.433000,3663
9.433500,3664
9.434000,3667
9.434500,3666
9.435000,3673
9.435500,3667
9.436000,0
9.436500,0
9.437000,0
9.437500,0
9.438000,0
9.438500,0
9.439000,0
9.439500,0
9.440000,0
9.440500,0
9.441000,0
9.441500,0
9.442000,0
9.442500,0
9.443000,0
9.443500,0
9.444000,0
9.444500,0
9.445000,0
9.445500,0
9.446000,3666
9.446500,3663
9.447000,3665
9.447500,3665
9.448000,3663
9.448500,3665
9.449000,3664
9.449500,3665
9.450000,3671
9.450500,3667
9.451000,3666
9.451500,3667
9.452000,3667
9.452500,3667
9.453000,3667
9.453500,3667
9.454000,3667
9.454500,3663
9.455000,3664
9.455500,3667
9.456000,0
9.456500,0
9.457000,0
9.457500,0
9.458000,0
9.458500,0
9.459000,0
9.459500,0
9.460000,0
9.460500,0
9.461000,0
9.461500,0
9.462000,0
9.462500,0
9.463000,0
9.463500,0
9.464000,0
9.464500,0
9.465000,0
9.465500,0
9.466000,3673
9.466500,3665
9.467000,3665
9.467500,3660
9.468000,3660
9.468500,3661
9.469000,3663
9.469500,3665
9.470000,3671
9.470500,3669
9.471000,3665
9.471500,3666
9.472000,3665
9.472500,3664
9.473000,3665
9.473500,3665
9.474000,3666
9.474500,3667
9.475000,3674
9.475500,3669
9.476000,0
9.476500,0
9.477000,0
9.477500,0
9.478000,0
9.478500,0
9.479000,0
9.479500,0
9.480000,0
9.480500,0
9.481000,0
9.481500,0
9.482000,0
9.482500,0
9.483000,0
9.483500,0
9.484000,0
9.484500,0
9.485000,0
9.485500,0
9.486000,3666
9.486500,3665
9.487000,3663
9.487500,3662
9.488000,3662
9.488500,3663
9.489000,3663
9.489500,3666
9.490000,3665
9.490500,3664
9.491000,3667
9.491500,3667
9.492000,3664
9.492500,3665
9.493000,3664
9.493500,3665
9.494000,3665
9.494500,3664
9.495000,3662
9.495500,3667
9.496000,0
9.496500,0
9.497000,0
9.497500,0
9.498000,0
9.498500,0
9.499000,0
9.499500,0
9.500000,0
9.500500,0
9.501000,0
9.501500,0
9.502000,0
9.502500,0
9.503000,0
9.503500,0
9.504000,0
9.504500,0
9.505000,0
9.505500,0
9.506000,3668
9.506500,3665
9.507000,3663
9.507500,3662
9.508000,3663
9.508500,3661
9.509000,3664
9.509500,3665
9.510000,3671
9.510500,3666
9.511000,3670
9.511500,3665
9.512000,3663
9.512500,3665
9.513000,3666
9.513500,3666
9.514000,3668
9.514500,3664
9.515000,3668
9.515500,3674
9.516000,0
9.516500,0
9.517000,0
9.517500,0
9.518000,0
9.518500,0
9.519000,0
9.519500,0
9.520000,0
9.520500,0
9.521000,0
9.521500,0
9.522000,0
9.522500,0
9.523000,0
9.523500,0
9.524000,0
9.524500,0
9.525000,0
9.525500,0
9.526000,3670
9.526500,3664
9.527000,3663
9.527500,3664
9.528000,3665
9.528500,3665
9.529000,3662
9.529500,3663
9.530000,3665
9.530500,3665
9.531000,3667
9.531500,3666
9.532000,3666
9.532500,3667
9.533000,3667
9.533500,3668
9.534000,3667
9.534500,3667
9.535000,3669
9.535500,3671
9.536000,0
9.536500,0
9.537000,0
9.537500,0
9.538000,0
9.538500,0
9.539000,0
9.539500,0
9.540000,0
9.540500,0
9.541000,0
9.541500,0
9.542000,0
9.542500,0
9.543000,0
9.543500,0
9.544000,0
9.544500,0
9.545000,0
9.545500,0
9.546000,3668
9.546500,3665
9.547000,3664
9.547500,3663
9.548000,3660
9.548500,3662
9.549000,3664
9.549500,3664
9.550000,3670
9.550500,3665
9.551000,3667
9.551500,3664
9.552000,3665
9.552500,3666
9.553000,3666
9.553500,3664
9.554000,3667
9.554500,3665
9.555000,3675
9.555500,3669
9.556000,0
9.556500,0
9.557000,0
9.557500,0
9.558000,0
9.558500,0
9.559000,0
9.559500,0
