# Subject: S01
# Trial: graded
# Notes: 
# Muscles: Ch1
# fs=2000 Hz, nch=1, vref=3.3 V
t_s,ch1_code
1155.952500,1804
1155.953000,1818
1155.953500,1812
1155.954000,1800
1155.954500,1796
1155.955000,1814
1155.955500,1797
1155.956000,1798
1155.956500,1809
1155.957000,1818
1155.957500,1808
1155.958000,1823
1155.958500,1823
1155.959000,1811
1155.959500,1804
1155.960000,1819
1155.960500,1818
1155.961000,1798
1155.961500,1805
1155.962000,1806
1155.962500,1793
1155.963000,1786
1155.963500,1800
1155.964000,1787
1155.964500,1785
1155.965000,1804
1155.965500,1811
1155.966000,1794
1155.966500,1804
1155.967000,1811
1155.967500,1800
1155.968000,1795
1155.968500,1813
1155.969000,1802
1155.969500,1794
1155.970000,1812
1155.970500,1814
1155.971000,1798
1155.971500,1810
1155.972000,1817
1155.972500,1804
1155.973000,1801
1155.973500,1814
1155.974000,1803
1155.974500,1794
1155.975000,1809
1155.975500,1815
1155.976000,1797
1155.976500,1807
1155.977000,1809
1155.977500,1797
1155.978000,1795
1155.978500,1808
1155.979000,1797
1155.979500,1792
1155.980000,1805
1155.980500,1812
1155.981000,1796
1155.981500,1810
1155.982000,1813
1155.982500,1802
1155.983000,1799
1155.983500,1815
1155.984000,1805
1155.984500,1798
1155.985000,1812
1155.985500,1817
1155.986000,1797
1155.986500,1811
1155.987000,1813
1155.987500,1799
1155.988000,1797
1155.988500,1817
1155.989000,1804
1155.989500,1799
1155.990000,1811
1155.990500,1815
1155.991000,1798
1155.991500,1799
1155.992000,1814
1155.992500,1801
1155.993000,1794
1155.993500,1809
1155.994000,1799
1155.994500,1791
1155.995000,1803
1155.995500,1804
1155.996000,1794
1155.996500,1800
1155.997000,1819
1155.997500,1812
1155.998000,1800
1155.998500,1815
1155.999000,1807
1155.999500,1799
1156.000000,1808
1156.000500,1814
1156.001000,1797
1156.001500,1800
1156.002000,1811
1156.002500,1804
1156.003000,1798
1156.003500,1812
1156.004000,1809
1156.004500,1804
1156.005000,1817
1156.005500,1820
1156.006000,1802
1156.006500,1807
1156.007000,1813
1156.007500,1804
1156.008000,1794
1156.008500,1806
1156.009000,1793
1156.009500,1793
1156.010000,1810
1156.010500,1818
1156.011000,1803
1156.011500,1815
1156.012000,1814
1156.012500,1803
1156.013000,1800
1156.013500,1811
1156.014000,1792
1156.014500,1789
1156.015000,1797
1156.015500,1797
1156.016000,1784
1156.016500,1787
1156.017000,1805
1156.017500,1801
1156.018000,1796
1156.018500,1815
1156.019000,1818
1156.019500,1800
1156.020000,1810
1156.020500,1818
1156.021000,1802
1156.021500,1793
1156.022000,1808
1156.022500,1796
1156.023000,1790
1156.023500,1806
1156.024000,1811
1156.024500,1793
1156.025000,1805
1156.025500,1812
1156.026000,1800
1156.026500,1798
1156.027000,1814
1156.027500,1813
1156.028000,1807
1156.028500,1821
1156.029000,1823
1156.029500,1806
1156.030000,1817
1156.030500,1815
1156.031000,1799
1156.031500,1791
1156.032000,1803
1156.032500,1794
1156.033000,1794
1156.033500,1810
1156.034000,1814
1156.034500,1799
1156.035000,1803
1156.035500,1806
1156.036000,1794
1156.036500,1789
1156.037000,1806
1156.037500,1804
1156.038000,1798
1156.038500,1811
1156.039000,1814
1156.039500,1796
1156.040000,1804
1156.040500,1808
1156.041000,1796
1156.041500,1790
1156.042000,1806
1156.042500,1803
1156.043000,1796
1156.043500,1810
1156.044000,1813
1156.044500,1799
1156.045000,1809
1156.045500,1814
1156.046000,1806
1156.046500,1805
1156.047000,1825
1156.047500,1816
1156.048000,1814
1156.048500,1825
1156.049000,1823
1156.049500,1805
1156.050000,1813
1156.050500,1813
1156.051000,1795
1156.051500,1787
1156.052000,1802
1156.052500,1797
1156.053000,1788
1156.053500,1804
1156.054000,1809
1156.054500,1796
1156.055000,1807
1156.055500,1813
1156.056000,1799
1156.056500,1796
1156.057000,1812
1156.057500,1799
1156.058000,1797
1156.058500,1810
1156.059000,1815
1156.059500,1800
1156.060000,1808
1156.060500,1811
1156.061000,1798
1156.061500,1794
1156.062000,1811
1156.062500,1808
1156.063000,1799
1156.063500,1811
1156.064000,1812
1156.064500,1796
1156.065000,1806
1156.065500,1810
1156.066000,1797
1156.066500,1792
1156.067000,1810
1156.067500,1804
1156.068000,1796
1156.068500,1813
1156.069000,1817
1156.069500,1802
1156.070000,1818
1156.070500,1823
1156.071000,1810
1156.071500,1799
1156.072000,1814
1156.072500,1805
1156.073000,1798
1156.073500,1812
1156.074000,1817
1156.074500,1803
1156.075000,1810
1156.075500,1817
1156.076000,1802
1156.076500,1795
1156.077000,1809
1156.077500,1807
1156.078000,1796
1156.078500,1805
1156.079000,1804
1156.079500,1785
1156.080000,1782
1156.080500,1801
1156.081000,1791
1156.081500,1787
1156.082000,1804
1156.082500,1801
1156.083000,1800
1156.083500,1809
1156.084000,1812
1156.084500,1798
1156.085000,1800
1156.085500,1812
1156.086000,1802
1156.086500,1797
1156.087000,1812
1156.087500,1805
1156.088000,1800
1156.088500,1811
1156.089000,1812
1156.089500,1799
1156.090000,1818
1156.090500,1811
1156.091000,1801
1156.091500,1794
1156.092000,1812
1156.092500,1808
1156.093000,1798
1156.093500,1809
1156.094000,1813
1156.094500,1796
1156.095000,1803
1156.095500,1812
1156.096000,1801
1156.096500,1795
1156.097000,1810
1156.097500,1808
1156.098000,1800
1156.098500,1810
1156.099000,1813
1156.099500,1799
1156.100000,1802
1156.100500,1810
1156.101000,1799
1156.101500,1794
1156.102000,1806
1156.102500,1806
1156.103000,1796
1156.103500,1808
1156.104000,1812
1156.104500,1795
1156.105000,1820
1156.105500,1812
1156.106000,1802
1156.106500,1797
1156.107000,1813
1156.107500,1797
1156.108000,1801
1156.108500,1814
1156.109000,1818
1156.109500,1807
1156.110000,1819
1156.110500,1825
1156.111000,1816
1156.111500,1807
1156.112000,1819
1156.112500,1808
1156.113000,1794
1156.113500,1798
1156.114000,1798
1156.114500,1784
1156.115000,1781
1156.115500,1803
1156.116000,1796
1156.116500,1794
1156.117000,1810
1156.117500,1817
1156.118000,1799
1156.118500,1812
1156.119000,1820
1156.119500,1807
1156.120000,1802
1156.120500,1820
1156.121000,1807
1156.121500,1801
1156.122000,1812
1156.122500,1818
1156.123000,1798
1156.123500,1808
1156.124000,1808
1156.124500,1792
1156.125000,1788
1156.125500,1803
1156.126000,1797
1156.126500,1793
1156.127000,1807
1156.127500,1817
1156.128000,1795
1156.128500,1810
1156.129000,1810
1156.129500,1802
1156.130000,1796
1156.130500,1815
1156.131000,1807
1156.131500,1798
1156.132000,1811
1156.132500,1821
1156.133000,1805
1156.133500,1812
1156.134000,1813
1156.134500,1798
1156.135000,1791
1156.135500,1803
1156.136000,1797
1156.136500,1792
1156.137000,1804
1156.137500,1809
1156.138000,1793
1156.138500,1807
1156.139000,1812
1156.139500,1799
1156.140000,1793
1156.140500,1806
1156.141000,1798
1156.141500,1793
1156.142000,1806
1156.142500,1813
1156.143000,1797
1156.143500,1813
1156.144000,1817
1156.144500,1809
1156.145000,1808
1156.145500,1824
1156.146000,1808
1156.146500,1805
1156.147000,1815
1156.147500,1819
1156.148000,1807
1156.148500,1798
1156.149000,1811
1156.149500,1802
1156.150000,1790
1156.150500,1797
1156.151000,1798
1156.151500,1784
1156.152000,1799
1156.152500,1807
1156.153000,1798
1156.153500,1794
1156.154000,1809
1156.154500,1801
1156.155000,1797
1156.155500,1808
1156.156000,1814
1156.156500,1798
1156.157000,1809
1156.157500,1819
1156.158000,1802
1156.158500,1793
1156.159000,1809
1156.159500,1801
1156.160000,1795
1156.160500,1807
1156.161000,1811
1156.161500,1796
1156.162000,1796
1156.162500,1813
1156.163000,1801
1156.163500,1798
1156.164000,1814
1156.164500,1804
1156.165000,1799
1156.165500,1809
1156.166000,1814
1156.166500,1803
1156.167000,1822
1156.167500,1821
1156.168000,1809
1156.168500,1801
1156.169000,1816
1156.169500,1818
1156.170000,1801
1156.170500,1812
1156.171000,1813
1156.171500,1795
1156.172000,1790
1156.172500,1808
1156.173000,1798
1156.173500,1794
1156.174000,1806
1156.174500,1813
1156.175000,1797
1156.175500,1807
1156.176000,1814
1156.176500,1803
1156.177000,1799
1156.177500,1815
1156.178000,1810
1156.178500,1803
1156.179000,1812
1156.179500,1815
1156.180000,1801
1156.180500,1811
1156.181000,1817
1156.181500,1801
1156.182000,1795
1156.182500,1813
1156.183000,1806
1156.183500,1800
1156.184000,1813
1156.184500,1816
1156.185000,1797
1156.185500,1809
1156.186000,1811
1156.186500,1800
1156.187000,1795
1156.187500,1814
1156.188000,1803
1156.188500,1798
1156.189000,1803
1156.189500,1807
1156.190000,1788
1156.190500,1792
1156.191000,1806
1156.191500,1799
1156.192000,1792
1156.192500,1808
1156.193000,1806
1156.193500,1797
1156.194000,1810
1156.194500,1817
1156.195000,1800
1156.195500,1819
1156.196000,1809
1156.196500,1799
1156.197000,1796
1156.197500,1812
1156.198000,1794
1156.198500,1797
1156.199000,1804
1156.199500,1810
1156.200000,1798
1156.200500,1790
1156.201000,1809
1156.201500,1803
1156.202000,1801
1156.202500,1815
1156.203000,1817
1156.203500,1800
1156.204000,1806
1156.204500,1812
1156.205000,1798
1156.205500,1797
1156.206000,1813
1156.206500,1803
1156.207000,1798
1156.207500,1815
1156.208000,1816
1156.208500,1800
1156.209000,1810
1156.209500,1816
1156.210000,1809
1156.210500,1805
1156.211000,1819
1156.211500,1809
1156.212000,1803
1156.212500,1816
1156.213000,1820
1156.213500,1803
1156.214000,1810
1156.214500,1812
1156.215000,1799
1156.215500,1787
1156.216000,1803
1156.216500,1799
1156.217000,1791
1156.217500,1805
1156.218000,1808
1156.218500,1791
1156.219000,1802
1156.219500,1805
1156.220000,1797
1156.220500,1796
1156.221000,1810
1156.221500,1793
1156.222000,1797
1156.222500,1814
1156.223000,1816
1156.223500,1799
1156.224000,1795
1156.224500,1813
1156.225000,1804
1156.225500,1798
1156.226000,1810
1156.226500,1816
1156.227000,1799
1156.227500,1815
1156.228000,1821
1156.228500,1806
1156.229000,1799
1156.229500,1813
1156.230000,1806
1156.230500,1800
1156.231000,1811
1156.231500,1814
1156.232000,1793
1156.232500,1801
1156.233000,1804
1156.233500,1794
1156.234000,1787
1156.234500,1802
1156.235000,1797
1156.235500,1792
1156.236000,1805
1156.236500,1812
1156.237000,1798
1156.237500,1810
1156.238000,1813
1156.238500,1802
1156.239000,1795
1156.239500,1809
1156.240000,1805
1156.240500,1799
1156.241000,1808
1156.241500,1811
1156.242000,1798
1156.242500,1817
1156.243000,1816
1156.243500,1803
1156.244000,1797
1156.244500,1811
1156.245000,1803
1156.245500,1799
1156.246000,1811
1156.246500,1814
1156.247000,1797
1156.247500,1809
1156.248000,1813
1156.248500,1801
1156.249000,1794
1156.249500,1813
1156.250000,1807
1156.250500,1804
1156.251000,1819
1156.251500,1822
1156.252000,1808
1156.252500,1819
1156.253000,1818
1156.253500,1803
1156.254000,1792
1156.254500,1805
1156.255000,1794
1156.255500,1783
1156.256000,1794
1156.256500,1802
1156.257000,1792
1156.257500,1806
1156.258000,1813
1156.258500,1802
1156.259000,1795
1156.259500,1810
1156.260000,1804
1156.260500,1797
1156.261000,1808
1156.261500,1813
1156.262000,1798
1156.262500,1801
1156.263000,1815
1156.263500,1800
1156.264000,1795
1156.264500,1811
1156.265000,1804
1156.265500,1798
1156.266000,1810
1156.266500,1816
1156.267000,1801
1156.267500,1802
1156.268000,1814
1156.268500,1801
1156.269000,1794
1156.269500,1807
1156.270000,1798
1156.270500,1791
1156.271000,1802
1156.271500,1810
1156.272000,1795
1156.272500,1799
1156.273000,1816
1156.273500,1806
1156.274000,1798
1156.274500,1812
1156.275000,1807
1156.275500,1802
1156.276000,1818
1156.276500,1822
1156.277000,1806
1156.277500,1828
1156.278000,1815
1156.278500,1804
1156.279000,1792
1156.279500,1804
1156.280000,1788
1156.280500,1788
1156.281000,1802
1156.281500,1807
1156.282000,1795
1156.282500,1811
1156.283000,1813
1156.283500,1805
1156.284000,1798
1156.284500,1815
1156.285000,1802
1156.285500,1801
1156.286000,1812
1156.286500,1815
1156.287000,1801
1156.287500,1796
1156.288000,1815
1156.288500,1809
1156.289000,1802
1156.289500,1816
1156.290000,1804
1156.290500,1805
1156.291000,1817
1156.291500,1820
1156.292000,1805
1156.292500,1805
1156.293000,1809
1156.293500,1796
1156.294000,1782
1156.294500,1793
1156.295000,1801
1156.295500,1791
1156.296000,1805
1156.296500,1812
1156.297000,1800
1156.297500,1799
1156.298000,1815
1156.298500,1806
1156.299000,1798
1156.299500,1811
1156.300000,1813
1156.300500,1795
1156.301000,1798
1156.301500,1806
1156.302000,1792
1156.302500,1795
1156.303000,1811
1156.303500,1804
1156.304000,1797
1156.304500,1811
1156.305000,1816
1156.305500,1796
1156.306000,1804
1156.306500,1810
1156.307000,1800
1156.307500,1794
1156.308000,1811
1156.308500,1805
1156.309000,1797
1156.309500,1807
1156.310000,1814
1156.310500,1795
1156.311000,1805
1156.311500,1813
1156.312000,1803
1156.312500,1796
1156.313000,1814
1156.313500,1807
1156.314000,1798
1156.314500,1809
1156.315000,1813
1156.315500,1797
1156.316000,1808
1156.316500,1812
1156.317000,1798
1156.317500,1801
1156.318000,1808
1156.318500,1803
1156.319000,1795
1156.319500,1810
1156.320000,1812
1156.320500,1797
1156.321000,1807
1156.321500,1812
1156.322000,1799
1156.322500,1792
1156.323000,1814
1156.323500,1806
1156.324000,1798
1156.324500,1810
1156.325000,1815
1156.325500,1799
1156.326000,1812
1156.326500,1814
1156.327000,1802
1156.327500,1798
1156.328000,1813
1156.328500,1806
1156.329000,1802
1156.329500,1817
1156.330000,1819
1156.330500,1803
1156.331000,1811
1156.331500,1821
1156.332000,1805
1156.332500,1803
1156.333000,1818
1156.333500,1807
1156.334000,1792
1156.334500,1802
1156.335000,1805
1156.335500,1789
1156.336000,1804
1156.336500,1792
1156.337000,1780
1156.337500,1780
1156.338000,1800
1156.338500,1798
1156.339000,1796
1156.339500,1807
1156.340000,1811
1156.340500,1797
1156.341000,1821
1156.341500,1812
1156.342000,1806
1156.342500,1802
1156.343000,1818
1156.343500,1807
1156.344000,1796
1156.344500,1810
1156.345000,1818
1156.345500,1807
1156.346000,1819
1156.346500,1815
1156.347000,1803
1156.347500,1802
1156.348000,1814
1156.348500,1798
1156.349000,1798
1156.349500,1809
1156.350000,1814
1156.350500,1799
1156.351000,1805
1156.351500,1810
1156.352000,1799
1156.352500,1797
1156.353000,1810
1156.353500,1799
1156.354000,1800
1156.354500,1812
1156.355000,1817
1156.355500,1802
1156.356000,1798
1156.356500,1814
1156.357000,1800
1156.357500,1800
1156.358000,1809
1156.358500,1805
1156.359000,1792
1156.359500,1805
1156.360000,1809
1156.360500,1794
1156.361000,1794
1156.361500,1811
1156.362000,1802
1156.362500,1796
1156.363000,1811
1156.363500,1817
1156.364000,1801
1156.364500,1816
1156.365000,1824
1156.365500,1811
1156.366000,1803
1156.366500,1819
1156.367000,1808
1156.367500,1805
1156.368000,1813
1156.368500,1817
1156.369000,1791
1156.369500,1798
1156.370000,1796
1156.370500,1784
1156.371000,1785
1156.371500,1804
1156.372000,1796
1156.372500,1795
1156.373000,1810
1156.373500,1815
1156.374000,1798
1156.374500,1806
1156.375000,1814
1156.375500,1800
1156.376000,1795
1156.376500,1811
1156.377000,1805
1156.377500,1799
1156.378000,1810
1156.378500,1815
1156.379000,1798
1156.379500,1806
1156.380000,1814
1156.380500,1799
1156.381000,1794
1156.381500,1810
1156.382000,1802
1156.382500,1802
1156.383000,1810
1156.383500,1815
1156.384000,1797
1156.384500,1809
1156.385000,1811
1156.385500,1799
1156.386000,1794
1156.386500,1812
1156.387000,1806
1156.387500,1802
1156.388000,1817
1156.388500,1821
1156.389000,1806
1156.389500,1813
1156.390000,1815
1156.390500,1801
1156.391000,1792
1156.391500,1805
1156.392000,1798
1156.392500,1788
1156.393000,1805
1156.393500,1809
1156.394000,1796
1156.394500,1809
1156.395000,1810
1156.395500,1800
1156.396000,1795
1156.396500,1810
1156.397000,1798
1156.397500,1796
1156.398000,1808
1156.398500,1811
1156.399000,1796
1156.399500,1808
1156.400000,1808
1156.400500,1800
1156.401000,1794
1156.401500,1808
1156.402000,1813
1156.402500,1798
1156.403000,1815
1156.403500,1818
1156.404000,1801
1156.404500,1799
1156.405000,1820
1156.405500,1812
1156.406000,1808
1156.406500,1817
1156.407000,1818
1156.407500,1802
1156.408000,1809
1156.408500,1817
1156.409000,1800
1156.409500,1789
1156.410000,1799
1156.410500,1788
1156.411000,1781
1156.411500,1802
1156.412000,1812
1156.412500,1799
1156.413000,1812
1156.413500,1815
1156.414000,1799
1156.414500,1795
1156.415000,1810
1156.415500,1803
1156.416000,1796
1156.416500,1809
1156.417000,1813
1156.417500,1807
1156.418000,1804
1156.418500,1815
1156.419000,1803
1156.419500,1797
1156.420000,1811
1156.420500,1805
1156.421000,1797
1156.421500,1808
1156.422000,1812
1156.422500,1800
1156.423000,1802
1156.423500,1816
1156.424000,1802
1156.424500,1798
1156.425000,1812
1156.425500,1800
1156.426000,1798
1156.426500,1805
1156.427000,1812
1156.427500,1797
1156.428000,1816
1156.428500,1823
1156.429000,1810
1156.429500,1806
1156.430000,1819
1156.430500,1809
1156.431000,1801
1156.431500,1815
1156.432000,1815
1156.432500,1802
1156.433000,1812
1156.433500,1810
1156.434000,1791
1156.434500,1780
1156.435000,1798
1156.435500,1786
1156.436000,1790
1156.436500,1805
1156.437000,1809
1156.437500,1795
1156.438000,1812
1156.438500,1811
1156.439000,1797
1156.439500,1795
1156.440000,1810
1156.440500,1797
1156.441000,1798
1156.441500,1808
1156.442000,1814
1156.442500,1802
1156.443000,1813
1156.443500,1813
1156.444000,1800
1156.444500,1796
1156.445000,1812
1156.445500,1792
1156.446000,1797
1156.446500,1810
1156.447000,1819
1156.447500,1808
1156.448000,1803
1156.448500,1821
1156.449000,1805
1156.449500,1799
1156.450000,1812
1156.450500,1813
1156.451000,1791
1156.451500,1804
1156.452000,1815
1156.452500,1809
1156.453000,1804
1156.453500,1817
1156.454000,1805
1156.454500,1799
1156.455000,1814
1156.455500,1814
1156.456000,1796
1156.456500,1802
1156.457000,1805
1156.457500,1793
1156.458000,1789
1156.458500,1807
1156.459000,1797
1156.459500,1792
1156.460000,1804
1156.460500,1811
1156.461000,1798
1156.461500,1812
1156.462000,1812
1156.462500,1801
1156.463000,1796
1156.463500,1812
1156.464000,1802
1156.464500,1797
1156.465000,1809
1156.465500,1813
1156.466000,1798
1156.466500,1802
1156.467000,1811
1156.467500,1798
1156.468000,1795
1156.468500,1807
1156.469000,1800
1156.469500,1796
1156.470000,1811
1156.470500,1815
1156.471000,1800
1156.471500,1815
1156.472000,1818
1156.472500,1807
1156.473000,1806
1156.473500,1819
1156.474000,1808
1156.474500,1798
1156.475000,1811
1156.475500,1818
1156.476000,1799
1156.476500,1804
1156.477000,1807
1156.477500,1795
1156.478000,1790
1156.478500,1808
1156.479000,1799
1156.479500,1794
1156.480000,1809
1156.480500,1812
1156.481000,1798
1156.481500,1805
1156.482000,1809
1156.482500,1797
1156.483000,1794
1156.483500,1811
1156.484000,1800
1156.484500,1793
1156.485000,1808
1156.485500,1813
1156.486000,1800
1156.486500,1807
1156.487000,1815
1156.487500,1802
1156.488000,1798
1156.488500,1815
1156.489000,1805
1156.489500,1796
1156.490000,1811
1156.490500,1816
1156.491000,1800
1156.491500,1808
1156.492000,1812
1156.492500,1795
1156.493000,1790
1156.493500,1811
1156.494000,1802
1156.494500,1798
1156.495000,1812
1156.495500,1815
1156.496000,1800
1156.496500,1808
1156.497000,1812
1156.497500,1804
1156.498000,1800
1156.498500,1812
1156.499000,1803
1156.499500,1795
1156.500000,1805
1156.500500,1811
1156.501000,1797
1156.501500,1807
1156.502000,1809
1156.502500,1804
1156.503000,1797
1156.503500,1810
1156.504000,1799
1156.504500,1796
1156.505000,1808
1156.505500,1818
1156.506000,1802
1156.506500,1811
1156.507000,1816
1156.507500,1808
1156.508000,1802
1156.508500,1816
1156.509000,1805
1156.509500,1797
1156.510000,1805
1156.510500,1806
1156.511000,1790
1156.511500,1795
1156.512000,1808
1156.512500,1804
1156.513000,1795
1156.513500,1814
1156.514000,1808
1156.514500,1802
1156.515000,1813
1156.515500,1816
1156.516000,1800
1156.516500,1809
1156.517000,1812
1156.517500,1797
1156.518000,1792
1156.518500,1807
1156.519000,1797
1156.519500,1791
1156.520000,1806
1156.520500,1815
1156.521000,1803
1156.521500,1806
1156.522000,1820
1156.522500,1813
1156.523000,1804
1156.523500,1818
1156.524000,1804
1156.524500,1799
1156.525000,1806
1156.525500,1811
1156.526000,1795
1156.526500,1803
1156.527000,1804
1156.527500,1798
1156.528000,1790
1156.528500,1808
1156.529000,1812
1156.529500,1804
1156.530000,1819
1156.530500,1823
1156.531000,1809
1156.531500,1800
1156.532000,1817
1156.532500,1807
1156.533000,1799
1156.533500,1811
1156.534000,1810
1156.534500,1789
1156.535000,1791
1156.535500,1795
1156.536000,1787
1156.536500,1788
1156.537000,1805
1156.537500,1796
1156.538000,1793
1156.538500,1802
1156.539000,1806
1156.539500,1792
1156.540000,1793
1156.540500,1807
1156.541000,1798
1156.541500,1796
1156.542000,1817
1156.542500,1810
1156.543000,1807
1156.543500,1818
1156.544000,1823
1156.544500,1809
1156.545000,1821
1156.545500,1818
1156.546000,1804
1156.546500,1797
1156.547000,1809
1156.547500,1790
1156.548000,1791
1156.548500,1807
1156.549000,1810
1156.549500,1798
1156.550000,1791
1156.550500,1810
1156.551000,1801
1156.551500,1797
1156.552000,1810
1156.552500,1820
1156.553000,1798
1156.553500,1808
1156.554000,1812
1156.554500,1800
1156.555000,1794
1156.555500,1809
1156.556000,1801
1156.556500,1798
1156.557000,1809
1156.557500,1814
1156.558000,1801
1156.558500,1810
1156.559000,1810
1156.559500,1798
1156.560000,1795
1156.560500,1810
1156.561000,1805
1156.561500,1796
1156.562000,1806
1156.562500,1815
1156.563000,1802
1156.563500,1803
1156.564000,1810
1156.564500,1801
1156.565000,1796
1156.565500,1815
1156.566000,1805
1156.566500,1798
1156.567000,1808
1156.567500,1816
1156.568000,1802
1156.568500,1821
1156.569000,1812
1156.569500,1803
1156.570000,1793
1156.570500,1813
1156.571000,1798
1156.571500,1796
1156.572000,1808
1156.572500,1815
1156.573000,1800
1156.573500,1795
1156.574000,1811
1156.574500,1800
1156.575000,1797
1156.575500,1810
1156.576000,1815
1156.576500,1797
1156.577000,1808
1156.577500,1819
1156.578000,1801
1156.578500,1794
1156.579000,1809
1156.579500,1802
1156.580000,1795
1156.580500,1810
1156.581000,1813
1156.581500,1798
1156.582000,1808
1156.582500,1815
1156.583000,1800
1156.583500,1794
1156.584000,1807
1156.584500,1802
1156.585000,1797
1156.585500,1808
1156.586000,1813
1156.586500,1795
1156.587000,1809
1156.587500,1818
1156.588000,1810
1156.588500,1805
1156.589000,1817
1156.589500,1810
1156.590000,1803
1156.590500,1817
1156.591000,1818
1156.591500,1801
1156.592000,1800
1156.592500,1809
1156.593000,1794
1156.593500,1787
1156.594000,1801
1156.594500,1796
1156.595000,1790
1156.595500,1805
1156.596000,1811
1156.596500,1794
1156.597000,1794
1156.597500,1811
1156.598000,1793
1156.598500,1791
1156.599000,1807
1156.599500,1807
1156.600000,1803
1156.600500,1813
1156.601000,1817
1156.601500,1802
1156.602000,1806
1156.602500,1816
1156.603000,1805
1156.603500,1799
1156.604000,1814
1156.604500,1807
1156.605000,1799
1156.605500,1811
1156.606000,1815
1156.606500,1800
1156.607000,1820
1156.607500,1816
1156.608000,1805
1156.608500,1799
1156.609000,1812
1156.609500,1800
1156.610000,1799
1156.610500,1809
1156.611000,1814
1156.611500,1799
1156.612000,1793
1156.612500,1816
1156.613000,1803
1156.613500,1802
1156.614000,1816
1156.614500,1823
1156.615000,1805
1156.615500,1815
1156.616000,1819
1156.616500,1803
1156.617000,1804
1156.617500,1824
1156.618000,1813
1156.618500,1805
1156.619000,1809
1156.619500,1808
1156.620000,1788
1156.620500,1798
1156.621000,1802
1156.621500,1791
1156.622000,1781
1156.622500,1799
1156.623000,1786
1156.623500,1780
1156.624000,1796
1156.624500,1805
1156.625000,1792
1156.625500,1802
1156.626000,1810
1156.626500,1802
1156.627000,1802
1156.627500,1818
1156.628000,1810
1156.628500,1802
1156.629000,1808
1156.629500,1811
1156.630000,1793
1156.630500,1806
1156.631000,1808
1156.631500,1796
1156.632000,1790
1156.632500,1810
1156.633000,1807
1156.633500,1802
1156.634000,1812
1156.634500,1814
1156.635000,1798
1156.635500,1800
1156.636000,1811
1156.636500,1801
1156.637000,1799
1156.637500,1816
1156.638000,1810
1156.638500,1801
1156.639000,1811
1156.639500,1814
1156.640000,1800
1156.640500,1801
1156.641000,1811
1156.641500,1796
1156.642000,1793
1156.642500,1813
1156.643000,1805
1156.643500,1797
1156.644000,1807
1156.644500,1811
1156.645000,1798
1156.645500,1809
1156.646000,1810
1156.646500,1801
1156.647000,1796
1156.647500,1816
1156.648000,1819
1156.648500,1800
1156.649000,1809
1156.649500,1819
1156.650000,1802
1156.650500,1797
1156.651000,1812
1156.651500,1802
1156.652000,1797
1156.652500,1810
1156.653000,1814
1156.653500,1798
1156.654000,1807
1156.654500,1812
1156.655000,1801
1156.655500,1800
1156.656000,1821
1156.656500,1813
1156.657000,1804
1156.657500,1814
1156.658000,1822
1156.658500,1802
1156.659000,1807
1156.659500,1810
1156.660000,1794
1156.660500,1789
1156.661000,1802
1156.661500,1793
1156.662000,1789
1156.662500,1808
1156.663000,1810
1156.663500,1797
1156.664000,1801
1156.664500,1813
1156.665000,1798
1156.665500,1793
1156.666000,1810
1156.666500,1801
1156.667000,1795
1156.667500,1810
1156.668000,1812
1156.668500,1797
1156.669000,1804
1156.669500,1813
1156.670000,1805
1156.670500,1802
1156.671000,1816
1156.671500,1807
1156.672000,1798
1156.672500,1814
1156.673000,1818
1156.673500,1800
1156.674000,1812
1156.674500,1814
1156.675000,1803
1156.675500,1797
1156.676000,1812
1156.676500,1803
1156.677000,1798
1156.677500,1814
1156.678000,1816
1156.678500,1801
1156.679000,1809
1156.679500,1807
1156.680000,1792
1156.680500,1789
1156.681000,1809
1156.681500,1801
1156.682000,1797
1156.682500,1809
1156.683000,1815
1156.683500,1802
1156.684000,1798
1156.684500,1812
1156.685000,1799
1156.685500,1794
1156.686000,1810
1156.686500,1804
1156.687000,1796
1156.687500,1811
1156.688000,1814
1156.688500,1801
1156.689000,1816
1156.689500,1811
1156.690000,1800
1156.690500,1797
1156.691000,1810
1156.691500,1795
1156.692000,1797
1156.692500,1811
1156.693000,1818
1156.693500,1802
1156.694000,1792
1156.694500,1808
1156.695000,1799
1156.695500,1795
1156.696000,1806
1156.696500,1811
1156.697000,1793
1156.697500,1805
1156.698000,1820
1156.698500,1808
1156.699000,1803
1156.699500,1821
1156.700000,1808
1156.700500,1802
1156.701000,1811
1156.701500,1814
1156.702000,1796
1156.702500,1810
1156.703000,1807
1156.703500,1794
1156.704000,1787
1156.704500,1800
1156.705000,1794
1156.705500,1790
1156.706000,1804
1156.706500,1810
1156.707000,1798
1156.707500,1807
1156.708000,1819
1156.708500,1807
1156.709000,1794
1156.709500,1810
1156.710000,1805
1156.710500,1796
1156.711000,1810
1156.711500,1813
1156.712000,1798
1156.712500,1812
1156.713000,1813
1156.713500,1803
1156.714000,1796
1156.714500,1811
1156.715000,1802
1156.715500,1796
1156.716000,1807
1156.716500,1813
1156.717000,1801
1156.717500,1793
1156.718000,1814
1156.718500,1808
1156.719000,1801
1156.719500,1815
1156.720000,1819
1156.720500,1797
1156.721000,1808
1156.721500,1811
1156.722000,1796
1156.722500,1790
1156.723000,1804
1156.723500,1794
1156.724000,1788
1156.724500,1808
1156.725000,1817
1156.725500,1803
1156.726000,1815
1156.726500,1819
1156.727000,1810
1156.727500,1808
1156.728000,1819
1156.728500,1809
1156.729000,1799
1156.729500,1809
1156.730000,1810
1156.730500,1792
1156.731000,1799
1156.731500,1805
1156.732000,1793
1156.732500,1790
1156.733000,1812
1156.733500,1806
1156.734000,1795
1156.734500,1807
1156.735000,1814
1156.735500,1798
1156.736000,1805
1156.736500,1809
1156.737000,1797
1156.737500,1798
1156.738000,1817
1156.738500,1810
1156.739000,1800
1156.739500,1813
1156.740000,1817
1156.740500,1796
1156.741000,1808
1156.741500,1812
1156.742000,1798
1156.742500,1798
1156.743000,1812
1156.743500,1803
1156.744000,1797
1156.744500,1809
1156.745000,1814
1156.745500,1794
1156.746000,1806
1156.746500,1812
1156.747000,1798
1156.747500,1793
1156.748000,1813
1156.748500,1802
1156.749000,1797
1156.749500,1808
1156.750000,1815
1156.750500,1797
1156.751000,1807
1156.751500,1812
1156.752000,1801
1156.752500,1796
1156.753000,1812
1156.753500,1805
1156.754000,1797
1156.754500,1811
1156.755000,1813
1156.755500,1798
1156.756000,1808
1156.756500,1814
1156.757000,1800
1156.757500,1801
1156.758000,1818
1156.758500,1807
1156.759000,1800
1156.759500,1813
1156.760000,1817
1156.760500,1797
1156.761000,1807
1156.761500,1809
1156.762000,1795
1156.762500,1789
1156.763000,1801
1156.763500,1794
1156.764000,1790
1156.764500,1805
1156.765000,1806
1156.765500,1795
1156.766000,1808
1156.766500,1813
1156.767000,1802
1156.767500,1800
1156.768000,1812
1156.768500,1802
1156.769000,1798
1156.769500,1809
1156.770000,1814
1156.770500,1797
1156.771000,1807
1156.771500,1814
1156.772000,1798
1156.772500,1801
1156.773000,1813
1156.773500,1803
1156.774000,1798
1156.774500,1811
1156.775000,1813
1156.775500,1794
1156.776000,1808
1156.776500,1809
1156.777000,1796
1156.777500,1797
1156.778000,1811
1156.778500,1804
1156.779000,1795
1156.779500,1809
1156.780000,1813
1156.780500,1798
1156.781000,1810
1156.781500,1812
1156.782000,1800
1156.782500,1797
1156.783000,1821
1156.783500,1809
1156.784000,1802
1156.784500,1813
1156.785000,1817
1156.785500,1801
1156.786000,1807
1156.786500,1810
1156.787000,1800
1156.787500,1793
1156.788000,1803
1156.788500,1795
1156.789000,1790
1156.789500,1805
1156.790000,1810
1156.790500,1795
1156.791000,1806
1156.791500,1813
1156.792000,1798
1156.792500,1795
1156.793000,1809
1156.793500,1804
1156.794000,1796
1156.794500,1810
1156.795000,1814
1156.795500,1797
1156.796000,1808
1156.796500,1812
1156.797000,1799
1156.797500,1799
1156.798000,1814
1156.798500,1808
1156.799000,1796
1156.799500,1810
1156.800000,1818
1156.800500,1806
1156.801000,1808
1156.801500,1819
1156.802000,1805
1156.802500,1803
1156.803000,1816
1156.803500,1808
1156.804000,1796
1156.804500,1805
1156.805000,1806
1156.805500,1789
1156.806000,1790
1156.806500,1806
1156.807000,1792
1156.807500,1791
1156.808000,1809
1156.808500,1807
1156.809000,1799
1156.809500,1809
1156.810000,1813
1156.810500,1802
1156.811000,1805
1156.811500,1821
1156.812000,1807
1156.812500,1806
1156.813000,1818
1156.813500,1810
1156.814000,1802
1156.814500,1809
1156.815000,1816
1156.815500,1794
1156.816000,1793
1156.816500,1798
1156.817000,1784
1156.817500,1787
1156.818000,1804
1156.818500,1801
1156.819000,1793
1156.819500,1808
1156.820000,1814
1156.820500,1802
1156.821000,1812
1156.821500,1818
1156.822000,1809
1156.822500,1802
1156.823000,1817
1156.823500,1807
1156.824000,1801
1156.824500,1812
1156.825000,1812
1156.825500,1794
1156.826000,1812
1156.826500,1803
1156.827000,1795
1156.827500,1792
1156.828000,1808
1156.828500,1796
1156.829000,1797
1156.829500,1809
1156.830000,1813
1156.830500,1801
1156.831000,1800
1156.831500,1814
1156.832000,1800
1156.832500,1799
1156.833000,1809
1156.833500,1811
1156.834000,1790
1156.834500,1800
1156.835000,1805
1156.835500,1793
1156.836000,1794
1156.836500,1815
1156.837000,1806
1156.837500,1799
1156.838000,1811
1156.838500,1815
1156.839000,1799
1156.839500,1808
1156.840000,1815
1156.840500,1800
1156.841000,1796
1156.841500,1810
1156.842000,1804
1156.842500,1799
1156.843000,1810
1156.843500,1814
1156.844000,1797
1156.844500,1808
1156.845000,1813
1156.845500,1800
1156.846000,1795
1156.846500,1809
1156.847000,1803
1156.847500,1798
1156.848000,1811
1156.848500,1814
1156.849000,1799
1156.849500,1809
1156.850000,1811
1156.850500,1800
1156.851000,1794
1156.851500,1810
1156.852000,1803
1156.852500,1801
1156.853000,1811
1156.853500,1813
1156.854000,1797
1156.854500,1797
1156.855000,1811
1156.855500,1800
1156.856000,1796
1156.856500,1811
1156.857000,1805
1156.857500,1799
1156.858000,1809
1156.858500,1816
1156.859000,1797
1156.859500,1817
1156.860000,1810
1156.860500,1799
1156.861000,1795
1156.861500,1807
1156.862000,1798
1156.862500,1800
1156.863000,1813
1156.863500,1819
1156.864000,1799
1156.864500,1813
1156.865000,1811
1156.865500,1800
1156.866000,1795
1156.866500,1813
1156.867000,1796
1156.867500,1800
1156.868000,1815
1156.868500,1821
1156.869000,1805
1156.869500,1804
1156.870000,1816
1156.870500,1802
1156.871000,1793
1156.871500,1810
1156.872000,1817
1156.872500,1801
1156.873000,1811
1156.873500,1818
1156.874000,1796
1156.874500,1790
1156.875000,1810
1156.875500,1797
1156.876000,1794
1156.876500,1806
1156.877000,1810
1156.877500,1793
1156.878000,1799
1156.878500,1805
1156.879000,1788
1156.879500,1787
1156.880000,1805
1156.880500,1799
1156.881000,1795
1156.881500,1804
1156.882000,1812
1156.882500,1796
1156.883000,1812
1156.883500,1815
1156.884000,1802
1156.884500,1797
1156.885000,1817
1156.885500,1807
1156.886000,1801
1156.886500,1813
1156.887000,1817
1156.887500,1806
1156.888000,1813
1156.888500,1815
1156.889000,1797
1156.889500,1790
1156.890000,1804
1156.890500,1797
1156.891000,1794
1156.891500,1809
1156.892000,1814
1156.892500,1801
1156.893000,1807
1156.893500,1818
1156.894000,1801
1156.894500,1798
1156.895000,1810
1156.895500,1800
1156.896000,1794
1156.896500,1808
1156.897000,1814
1156.897500,1796
1156.898000,1806
1156.898500,1813
1156.899000,1798
1156.899500,1796
1156.900000,1811
1156.900500,1804
1156.901000,1800
1156.901500,1813
1156.902000,1819
1156.902500,1804
1156.903000,1807
1156.903500,1814
1156.904000,1800
1156.904500,1794
1156.905000,1813
1156.905500,1802
1156.906000,1797
1156.906500,1810
1156.907000,1817
1156.907500,1802
1156.908000,1812
1156.908500,1817
1156.909000,1799
1156.909500,1796
1156.910000,1811
1156.910500,1801
1156.911000,1793
1156.911500,1806
1156.912000,1811
1156.912500,1800
1156.913000,1817
1156.913500,1825
1156.914000,1809
1156.914500,1802
1156.915000,1819
1156.915500,1806
1156.916000,1801
1156.916500,1812
1156.917000,1814
1156.917500,1798
1156.918000,1802
1156.918500,1802
1156.919000,1784
1156.919500,1777
1156.920000,1801
1156.920500,1793
1156.921000,1788
1156.921500,1804
1156.922000,1810
1156.922500,1799
1156.923000,1808
1156.923500,1813
1156.924000,1798
1156.924500,1791
1156.925000,1809
1156.925500,1802
1156.926000,1794
1156.926500,1810
1156.927000,1813
1156.927500,1799
1156.928000,1812
1156.928500,1815
1156.929000,1801
1156.929500,1798
1156.930000,1815
1156.930500,1803
1156.931000,1798
1156.931500,1808
1156.932000,1812
1156.932500,1797
1156.933000,1810
1156.933500,1820
1156.934000,1807
1156.934500,1804
1156.935000,1823
1156.935500,1818
1156.936000,1813
1156.936500,1819
1156.937000,1819
1156.937500,1803
1156.938000,1805
1156.938500,1803
1156.939000,1787
1156.939500,1782
1156.940000,1801
1156.940500,1796
1156.941000,1794
1156.941500,1808
1156.942000,1812
1156.942500,1801
1156.943000,1799
1156.943500,1811
1156.944000,1797
1156.944500,1794
1156.945000,1809
1156.945500,1807
1156.946000,1800
1156.946500,1813
1156.947000,1816
1156.947500,1805
1156.948000,1803
1156.948500,1815
1156.949000,1801
1156.949500,1795
1156.950000,1810
1156.950500,1805
1156.951000,1796
1156.951500,1808
1156.952000,1812
1156.952500,1797
1156.953000,1814
1156.953500,1813
1156.954000,1799
1156.954500,1793
1156.955000,1807
1156.955500,1803
1156.956000,1798
1156.956500,1810
1156.957000,1819
1156.957500,1807
1156.958000,1807
1156.958500,1819
1156.959000,1807
1156.959500,1802
1156.960000,1815
1156.960500,1806
1156.961000,1794
1156.961500,1805
1156.962000,1808
1156.962500,1794
1156.963000,1813
1156.963500,1809
1156.964000,1798
1156.964500,1795
1156.965000,1809
1156.965500,1801
1156.966000,1797
1156.966500,1808
1156.967000,1813
1156.967500,1796
1156.968000,1811
1156.968500,1809
1156.969000,1799
1156.969500,1794
1156.970000,1808
1156.970500,1794
1156.971000,1797
1156.971500,1807
1156.972000,1812
1156.972500,1801
1156.973000,1798
1156.973500,1813
1156.974000,1804
1156.974500,1797
1156.975000,1811
1156.975500,1816
1156.976000,1796
1156.976500,1810
1156.977000,1813
1156.977500,1801
1156.978000,1796
1156.978500,1812
1156.979000,1800
1156.979500,1795
1156.980000,1807
1156.980500,1813
1156.981000,1795
1156.981500,1809
1156.982000,1809
1156.982500,1799
1156.983000,1796
1156.983500,1812
1156.984000,1803
1156.984500,1792
1156.985000,1809
1156.985500,1812
1156.986000,1797
1156.986500,1810
1156.987000,1815
1156.987500,1804
1156.988000,1798
1156.988500,1816
1156.989000,1806
1156.989500,1796
1156.990000,1807
1156.990500,1813
1156.991000,1793
1156.991500,1806
1156.992000,1813
1156.992500,1804
1156.993000,1797
1156.993500,1810
1156.994000,1800
1156.994500,1798
1156.995000,1810
1156.995500,1815
1156.996000,1797
1156.996500,1809
1156.997000,1812
1156.997500,1801
1156.998000,1795
1156.998500,1812
1156.999000,1801
1156.999500,1797
1157.000000,1809
1157.000500,1815
1157.001000,1798
1157.001500,1810
1157.002000,1811
1157.002500,1805
1157.003000,1797
1157.003500,1810
1157.004000,1802
1157.004500,1797
1157.005000,1807
1157.005500,1813
1157.006000,1794
1157.006500,1807
1157.007000,1812
1157.007500,1800
1157.008000,1795
1157.008500,1814
1157.009000,1802
1157.009500,1794
1157.010000,1811
1157.010500,1815
1157.011000,1798
1157.011500,1805
1157.012000,1812
1157.012500,1803
1157.013000,1796
1157.013500,1811
1157.014000,1801
1157.014500,1795
1157.015000,1807
1157.015500,1810
1157.016000,1790
1157.016500,1805
1157.017000,1809
1157.017500,1803
1157.018000,1796
1157.018500,1815
1157.019000,1808
1157.019500,1806
1157.020000,1814
1157.020500,1822
1157.021000,1811
1157.021500,1822
1157.022000,1824
1157.022500,1809
1157.023000,1803
1157.023500,1814
1157.024000,1800
1157.024500,1793
1157.025000,1805
1157.025500,1809
1157.026000,1788
1157.026500,1798
1157.027000,1796
1157.027500,1784
1157.028000,1788
1157.028500,1809
1157.029000,1800
1157.029500,1797
1157.030000,1810
1157.030500,1816
1157.031000,1798
1157.031500,1809
1157.032000,1811
1157.032500,1805
1157.033000,1792
1157.033500,1805
1157.034000,1795
1157.034500,1790
1157.035000,1804
1157.035500,1810
1157.036000,1796
1157.036500,1805
1157.037000,1813
1157.037500,1806
1157.038000,1799
1157.038500,1814
1157.039000,1804
1157.039500,1796
1157.040000,1810
1157.040500,1815
1157.041000,1803
1157.041500,1816
1157.042000,1819
1157.042500,1808
1157.043000,1801
1157.043500,1817
1157.044000,1805
1157.044500,1796
1157.045000,1808
1157.045500,1811
1157.046000,1799
1157.046500,1807
1157.047000,1810
1157.047500,1799
1157.048000,1795
1157.048500,1812
1157.049000,1802
1157.049500,1795
1157.050000,1809
1157.050500,1809
1157.051000,1794
1157.051500,1803
1157.052000,1811
1157.052500,1805
1157.053000,1798
1157.053500,1813
1157.054000,1807
1157.054500,1798
1157.055000,1810
1157.055500,1815
1157.056000,1796
1157.056500,1809
1157.057000,1812
1157.057500,1800
1157.058000,1796
1157.058500,1813
1157.059000,1803
1157.059500,1797
1157.060000,1808
1157.060500,1812
1157.061000,1799
1157.061500,1805
1157.062000,1811
1157.062500,1803
1157.063000,1797
1157.063500,1813
1157.064000,1802
1157.064500,1797
1157.065000,1808
1157.065500,1812
1157.066000,1797
1157.066500,1803
1157.067000,1807
1157.067500,1799
1157.068000,1798
1157.068500,1815
1157.069000,1804
1157.069500,1799
1157.070000,1812
1157.070500,1816
1157.071000,1801
1157.071500,1807
1157.072000,1814
1157.072500,1802
1157.073000,1795
1157.073500,1814
1157.074000,1804
1157.074500,1797
1157.075000,1810
1157.075500,1816
1157.076000,1797
1157.076500,1807
1157.077000,1811
1157.077500,1800
1157.078000,1796
1157.078500,1814
1157.079000,1800
1157.079500,1794
1157.080000,1809
1157.080500,1813
1157.081000,1797
1157.081500,1807
1157.082000,1811
1157.082500,1801
1157.083000,1795
1157.083500,1814
1157.084000,1800
1157.084500,1795
1157.085000,1808
1157.085500,1811
1157.086000,1797
1157.086500,1803
1157.087000,1808
1157.087500,1800
1157.088000,1799
1157.088500,1816
1157.089000,1806
1157.089500,1799
1157.090000,1812
1157.090500,1812
1157.091000,1798
1157.091500,1809
1157.092000,1812
1157.092500,1798
1157.093000,1799
1157.093500,1816
1157.094000,1802
1157.094500,1796
1157.095000,1811
1157.095500,1816
1157.096000,1804
1157.096500,1815
1157.097000,1821
1157.097500,1810
1157.098000,1803
1157.098500,1817
1157.099000,1806
1157.099500,1798
1157.100000,1807
1157.100500,1808
1157.101000,1792
1157.101500,1794
1157.102000,1801
1157.102500,1793
1157.103000,1793
1157.103500,1811
1157.104000,1798
1157.104500,1796
1157.105000,1806
1157.105500,1813
1157.106000,1799
1157.106500,1807
1157.107000,1814
1157.107500,1803
1157.108000,1798
1157.108500,1812
1157.109000,1801
1157.109500,1797
1157.110000,1810
1157.110500,1815
1157.111000,1800
1157.111500,1808
1157.112000,1814
1157.112500,1805
1157.113000,1798
1157.113500,1812
1157.114000,1805
1157.114500,1799
1157.115000,1815
1157.115500,1818
1157.116000,1803
1157.116500,1813
1157.117000,1818
1157.117500,1802
1157.118000,1798
1157.118500,1811
1157.119000,1803
1157.119500,1793
1157.120000,1805
1157.120500,1805
1157.121000,1791
1157.121500,1800
1157.122000,1806
1157.122500,1799
1157.123000,1794
1157.123500,1809
1157.124000,1800
1157.124500,1799
1157.125000,1809
1157.125500,1813
1157.126000,1797
1157.126500,1809
1157.127000,1812
1157.127500,1806
1157.128000,1798
1157.128500,1812
1157.129000,1811
1157.129500,1811
1157.130000,1820
1157.130500,1822
1157.131000,1804
1157.131500,1814
1157.132000,1815
1157.132500,1802
1157.133000,1802
1157.133500,1813
1157.134000,1798
1157.134500,1787
1157.135000,1792
1157.135500,1798
1157.136000,1785
1157.136500,1785
1157.137000,1802
1157.137500,1795
1157.138000,1795
1157.138500,1810
1157.139000,1802
1157.139500,1795
1157.140000,1804
1157.140500,1813
1157.141000,1801
1157.141500,1819
1157.142000,1821
1157.142500,1807
1157.143000,1798
1157.143500,1814
1157.144000,1804
1157.144500,1796
1157.145000,1808
1157.145500,1814
1157.146000,1798
1157.146500,1822
1157.147000,1812
1157.147500,1805
1157.148000,1796
1157.148500,1812
1157.149000,1795
1157.149500,1799
1157.150000,1808
1157.150500,1813
1157.151000,1800
1157.151500,1795
1157.152000,1812
1157.152500,1808
1157.153000,1800
1157.153500,1812
1157.154000,1818
1157.154500,1797
1157.155000,1810
1157.155500,1811
1157.156000,1799
1157.156500,1791
1157.157000,1808
1157.157500,1801
1157.158000,1795
1157.158500,1813
1157.159000,1819
1157.159500,1799
1157.160000,1809
1157.160500,1814
1157.161000,1801
1157.161500,1794
1157.162000,1811
1157.162500,1803
1157.163000,1799
1157.163500,1810
1157.164000,1813
1157.164500,1798
1157.165000,1796
1157.165500,1811
1157.166000,1800
1157.166500,1795
1157.167000,1809
1157.167500,1806
1157.168000,1796
1157.168500,1809
1157.169000,1816
1157.169500,1798
1157.170000,1819
1157.170500,1814
1157.171000,1803
1157.171500,1804
1157.172000,1822
1157.172500,1816
1157.173000,1807
1157.173500,1815
1157.174000,1817
1157.174500,1804
1157.175000,1792
1157.175500,1804
1157.176000,1792
1157.176500,1784
1157.177000,1799
1157.177500,1801
1157.178000,1787
1157.178500,1805
1157.179000,1807
1157.179500,1793
1157.180000,1790
1157.180500,1806
1157.181000,1797
1157.181500,1793
1157.182000,1805
1157.182500,1814
1157.183000,1801
1157.183500,1810
1157.184000,1814
1157.184500,1801
1157.185000,1795
1157.185500,1810
1157.186000,1805
1157.186500,1799
1157.187000,1810
1157.187500,1816
1157.188000,1799
1157.188500,1808
1157.189000,1812
1157.189500,1800
1157.190000,1795
1157.190500,1807
1157.191000,1805
1157.191500,1797
1157.192000,1813
1157.192500,1818
1157.193000,1799
1157.193500,1806
1157.194000,1812
1157.194500,1800
1157.195000,1795
1157.195500,1811
1157.196000,1805
1157.196500,1797
1157.197000,1808
1157.197500,1817
1157.198000,1799
1157.198500,1817
1157.199000,1815
1157.199500,1805
1157.200000,1799
1157.200500,1812
1157.201000,1799
1157.201500,1805
1157.202000,1819
1157.202500,1827
1157.203000,1811
1157.203500,1809
1157.204000,1813
1157.204500,1796
1157.205000,1794
1157.205500,1808
1157.206000,1814
1157.206500,1791
1157.207000,1801
1157.207500,1800
1157.208000,1784
1157.208500,1784
1157.209000,1804
1157.209500,1795
1157.210000,1791
1157.210500,1807
1157.211000,1812
1157.211500,1793
1157.212000,1809
1157.212500,1811
1157.213000,1804
1157.213500,1798
1157.214000,1810
1157.214500,1800
1157.215000,1794
1157.215500,1810
1157.216000,1814
1157.216500,1799
1157.217000,1804
1157.217500,1812
1157.218000,1800
1157.218500,1796
1157.219000,1810
1157.219500,1805
1157.220000,1799
1157.220500,1809
1157.221000,1814
1157.221500,1798
1157.222000,1809
1157.222500,1817
1157.223000,1804
1157.223500,1801
1157.224000,1812
1157.224500,1806
1157.225000,1797
1157.225500,1807
1157.226000,1811
1157.226500,1797
1157.227000,1802
1157.227500,1811
1157.228000,1805
1157.228500,1801
1157.229000,1814
1157.229500,1804
1157.230000,1798
1157.230500,1811
1157.231000,1815
1157.231500,1800
1157.232000,1813
1157.232500,1812
1157.233000,1805
1157.233500,1801
1157.234000,1810
1157.234500,1802
1157.235000,1796
1157.235500,1805
1157.236000,1811
1157.236500,1799
1157.237000,1794
1157.237500,1814
1157.238000,1801
1157.238500,1797
1157.239000,1810
1157.239500,1815
1157.240000,1798
1157.240500,1805
1157.241000,1814
1157.241500,1799
1157.242000,1795
1157.242500,1807
1157.243000,1803
1157.243500,1799
1157.244000,1807
1157.244500,1813
1157.245000,1795
1157.245500,1808
1157.246000,1812
1157.246500,1800
1157.247000,1794
1157.247500,1812
1157.248000,1805
1157.248500,1800
1157.249000,1809
1157.249500,1813
1157.250000,1799
1157.250500,1803
1157.251000,1812
1157.251500,1802
1157.252000,1796
1157.252500,1812
1157.253000,1807
1157.253500,1799
1157.254000,1810
1157.254500,1815
1157.255000,1799
1157.255500,1817
1157.256000,1811
1157.256500,1800
1157.257000,1794
1157.257500,1813
1157.258000,1803
1157.258500,1800
1157.259000,1805
1157.259500,1811
1157.260000,1798
1157.260500,1793
1157.261000,1809
1157.261500,1797
1157.262000,1794
1157.262500,1810
1157.263000,1813
1157.263500,1797
1157.264000,1801
1157.264500,1812
1157.265000,1801
1157.265500,1794
1157.266000,1812
1157.266500,1804
1157.267000,1799
1157.267500,1813
1157.268000,1818
1157.268500,1803
1157.269000,1815
1157.269500,1817
1157.270000,1806
1157.270500,1800
1157.271000,1817
1157.271500,1813
1157.272000,1808
1157.272500,1819
1157.273000,1822
1157.273500,1801
1157.274000,1810
1157.274500,1807
1157.275000,1794
1157.275500,1787
1157.276000,1803
1157.276500,1797
1157.277000,1791
1157.277500,1804
1157.278000,1811
1157.278500,1798
1157.279000,1811
1157.279500,1810
1157.280000,1799
1157.280500,1793
1157.281000,1807
1157.281500,1809
1157.282000,1795
1157.282500,1810
1157.283000,1816
1157.283500,1799
1157.284000,1794
1157.284500,1810
1157.285000,1803
1157.285500,1796
1157.286000,1809
1157.286500,1814
1157.287000,1795
1157.287500,1809
1157.288000,1814
1157.288500,1802
1157.289000,1795
1157.289500,1810
1157.290000,1801
1157.290500,1796
1157.291000,1809
1157.291500,1812
1157.292000,1795
1157.292500,1804
1157.293000,1813
1157.293500,1801
1157.294000,1794
1157.294500,1809
1157.295000,1803
1157.295500,1799
1157.296000,1812
1157.296500,1817
1157.297000,1802
1157.297500,1809
1157.298000,1817
1157.298500,1805
1157.299000,1801
1157.299500,1814
1157.300000,1806
1157.300500,1798
1157.301000,1808
1157.301500,1812
1157.302000,1796
1157.302500,1812
1157.303000,1812
1157.303500,1805
1157.304000,1797
1157.304500,1812
1157.305000,1794
1157.305500,1797
1157.306000,1812
1157.306500,1827
1157.307000,1816
1157.307500,1827
1157.308000,1826
1157.308500,1815
1157.309000,1807
1157.309500,1815
1157.310000,1815
1157.310500,1793
1157.311000,1798
1157.311500,1797
1157.312000,1780
1157.312500,1774
1157.313000,1802
1157.313500,1800
1157.314000,1791
1157.314500,1806
1157.315000,1811
1157.315500,1794
1157.316000,1804
1157.316500,1810
1157.317000,1797
1157.317500,1794
1157.318000,1807
1157.318500,1801
1157.319000,1798
1157.319500,1812
1157.320000,1817
1157.320500,1802
1157.321000,1813
1157.321500,1814
1157.322000,1799
1157.322500,1801
1157.323000,1814
1157.323500,1808
1157.324000,1801
1157.324500,1811
1157.325000,1817
1157.325500,1801
1157.326000,1804
1157.326500,1813
1157.327000,1800
1157.327500,1797
1157.328000,1808
1157.328500,1798
1157.329000,1788
1157.329500,1797
1157.330000,1801
1157.330500,1787
1157.331000,1812
1157.331500,1808
1157.332000,1799
1157.332500,1800
1157.333000,1811
1157.333500,1799
1157.334000,1798
1157.334500,1808
1157.335000,1815
1157.335500,1798
1157.336000,1797
1157.336500,1813
1157.337000,1800
1157.337500,1795
1157.338000,1812
1157.338500,1797
1157.339000,1794
1157.339500,1808
1157.340000,1812
1157.340500,1799
1157.341000,1792
1157.341500,1812
1157.342000,1801
1157.342500,1796
1157.343000,1815
1157.343500,1820
1157.344000,1796
1157.344500,1810
1157.345000,1816
1157.345500,1801
1157.346000,1795
1157.346500,1811
1157.347000,1804
1157.347500,1802
1157.348000,1811
1157.348500,1813
1157.349000,1798
1157.349500,1807
1157.350000,1811
1157.350500,1800
1157.351000,1794
1157.351500,1812
1157.352000,1805
1157.352500,1802
1157.353000,1811
1157.353500,1818
1157.354000,1799
1157.354500,1809
1157.355000,1811
1157.355500,1800
1157.356000,1795
1157.356500,1809
1157.357000,1804
1157.357500,1799
1157.358000,1810
1157.358500,1815
1157.359000,1798
1157.359500,1809
1157.360000,1812
1157.360500,1800
1157.361000,1795
1157.361500,1810
1157.362000,1801
1157.362500,1795
1157.363000,1813
1157.363500,1817
1157.364000,1798
1157.364500,1797
1157.365000,1811
1157.365500,1799
1157.366000,1796
1157.366500,1813
1157.367000,1804
1157.367500,1799
1157.368000,1809
1157.368500,1813
1157.369000,1798
1157.369500,1796
1157.370000,1807
1157.370500,1796
1157.371000,1792
1157.371500,1811
1157.372000,1808
1157.372500,1801
1157.373000,1808
1157.373500,1814
1157.374000,1798
1157.374500,1801
1157.375000,1812
1157.375500,1799
1157.376000,1796
1157.376500,1812
1157.377000,1806
1157.377500,1801
1157.378000,1813
1157.378500,1817
1157.379000,1799
1157.379500,1803
1157.380000,1813
1157.380500,1800
1157.381000,1797
1157.381500,1812
1157.382000,1804
1157.382500,1796
1157.383000,1813
1157.383500,1818
1157.384000,1798
1157.384500,1799
1157.385000,1813
1157.385500,1802
1157.386000,1798
1157.386500,1813
1157.387000,1803
1157.387500,1801
1157.388000,1812
1157.388500,1815
1157.389000,1798
1157.389500,1811
1157.390000,1813
1157.390500,1800
1157.391000,1795
1157.391500,1809
1157.392000,1801
1157.392500,1800
1157.393000,1808
1157.393500,1817
1157.394000,1799
1157.394500,1809
1157.395000,1813
1157.395500,1799
1157.396000,1795
1157.396500,1812
1157.397000,1807
1157.397500,1806
1157.398000,1820
1157.398500,1825
1157.399000,1812
1157.399500,1825
1157.400000,1826
1157.400500,1812
1157.401000,1803
1157.401500,1817
1157.402000,1805
1157.402500,1798
1157.403000,1803
1157.403500,1807
1157.404000,1785
1157.404500,1801
1157.405000,1791
1157.405500,1777
1157.406000,1777
1157.406500,1797
1157.407000,1783
1157.407500,1794
1157.408000,1806
1157.408500,1816
1157.409000,1798
1157.409500,1795
1157.410000,1811
1157.410500,1801
1157.411000,1797
1157.411500,1807
1157.412000,1814
1157.412500,1797
1157.413000,1809
1157.413500,1815
1157.414000,1800
1157.414500,1796
1157.415000,1810
1157.415500,1801
1157.416000,1794
1157.416500,1810
1157.417000,1813
1157.417500,1794
1157.418000,1809
1157.418500,1812
1157.419000,1800
1157.419500,1798
1157.420000,1813
1157.420500,1805
1157.421000,1798
1157.421500,1812
1157.422000,1817
1157.422500,1798
1157.423000,1812
1157.423500,1814
1157.424000,1797
1157.424500,1794
1157.425000,1813
1157.425500,1805
1157.426000,1795
1157.426500,1810
1157.427000,1815
1157.427500,1798
1157.428000,1810
1157.428500,1813
1157.429000,1797
1157.429500,1792
1157.430000,1812
1157.430500,1802
1157.431000,1794
1157.431500,1809
1157.432000,1814
1157.432500,1801
1157.433000,1810
1157.433500,1815
1157.434000,1804
1157.434500,1798
1157.435000,1820
1157.435500,1807
1157.436000,1804
1157.436500,1813
1157.437000,1819
1157.437500,1799
1157.438000,1808
1157.438500,1817
1157.439000,1803
1157.439500,1795
1157.440000,1803
1157.440500,1794
1157.441000,1788
1157.441500,1800
1157.442000,1809
1157.442500,1796
1157.443000,1805
1157.443500,1812
1157.444000,1800
1157.444500,1795
1157.445000,1811
1157.445500,1806
1157.446000,1801
1157.446500,1811
1157.447000,1818
1157.447500,1805
1157.448000,1807
1157.448500,1818
1157.449000,1802
1157.449500,1797
1157.450000,1812
1157.450500,1805
1157.451000,1797
1157.451500,1807
1157.452000,1813
1157.452500,1809
1157.453000,1832
1157.453500,1828
1157.454000,1810
1157.454500,1805
1157.455000,1818
1157.455500,1819
1157.456000,1798
1157.456500,1804
1157.457000,1809
1157.457500,1794
1157.458000,1780
1157.458500,1798
1157.459000,1789
1157.459500,1788
1157.460000,1800
1157.460500,1808
1157.461000,1791
1157.461500,1806
1157.462000,1808
1157.462500,1801
1157.463000,1794
1157.463500,1810
1157.464000,1800
1157.464500,1794
1157.465000,1807
1157.465500,1814
1157.466000,1800
1157.466500,1809
1157.467000,1814
1157.467500,1804
1157.468000,1801
1157.468500,1816
1157.469000,1804
1157.469500,1803
1157.470000,1811
1157.470500,1817
1157.471000,1801
1157.471500,1796
1157.472000,1813
1157.472500,1801
1157.473000,1797
1157.473500,1811
1157.474000,1815
1157.474500,1796
1157.475000,1809
1157.475500,1813
1157.476000,1800
1157.476500,1794
1157.477000,1810
1157.477500,1806
1157.478000,1797
1157.478500,1817
1157.479000,1829
1157.479500,1815
1157.480000,1822
1157.480500,1825
1157.481000,1811
1157.481500,1803
1157.482000,1813
1157.482500,1799
1157.483000,1794
1157.483500,1800
1157.484000,1797
1157.484500,1783
1157.485000,1793
1157.485500,1800
1157.486000,1793
1157.486500,1788
1157.487000,1805
1157.487500,1800
1157.488000,1798
1157.488500,1813
1157.489000,1811
1157.489500,1796
1157.490000,1804
1157.490500,1810
1157.491000,1799
1157.491500,1795
1157.492000,1810
1157.492500,1800
1157.493000,1797
1157.493500,1807
1157.494000,1811
1157.494500,1795
1157.495000,1804
1157.495500,1816
1157.496000,1806
1157.496500,1802
1157.497000,1816
1157.497500,1805
1157.498000,1800
1157.498500,1813
1157.499000,1813
1157.499500,1799
1157.500000,1809
1157.500500,1811
1157.501000,1799
1157.501500,1794
1157.502000,1809
1157.502500,1806
1157.503000,1797
1157.503500,1809
1157.504000,1813
1157.504500,1798
1157.505000,1800
1157.505500,1814
1157.506000,1800
1157.506500,1796
1157.507000,1807
1157.507500,1805
1157.508000,1796
1157.508500,1809
1157.509000,1809
1157.509500,1799
1157.510000,1814
1157.510500,1816
1157.511000,1802
1157.511500,1795
1157.512000,1809
1157.512500,1794
1157.513000,1801
1157.513500,1812
1157.514000,1813
1157.514500,1801
1157.515000,1793
1157.515500,1814
1157.516000,1809
1157.516500,1804
1157.517000,1818
1157.517500,1825
1157.518000,1806
1157.518500,1818
1157.519000,1817
1157.519500,1800
1157.520000,1789
1157.520500,1801
1157.521000,1788
1157.521500,1780
1157.522000,1796
1157.522500,1809
1157.523000,1794
1157.523500,1801
1157.524000,1810
1157.524500,1798
1157.525000,1796
1157.525500,1812
1157.526000,1803
1157.526500,1796
1157.527000,1810
1157.527500,1815
1157.528000,1801
1157.528500,1811
1157.529000,1816
1157.529500,1799
1157.530000,1795
1157.530500,1811
1157.531000,1803
1157.531500,1796
1157.532000,1808
1157.532500,1812
1157.533000,1798
1157.533500,1805
1157.534000,1812
1157.534500,1798
1157.535000,1794
1157.535500,1808
1157.536000,1803
1157.536500,1797
1157.537000,1808
1157.537500,1820
1157.538000,1799
1157.538500,1808
1157.539000,1813
1157.539500,1801
1157.540000,1797
1157.540500,1809
1157.541000,1804
1157.541500,1799
1157.542000,1812
1157.542500,1825
1157.543000,1807
1157.543500,1809
1157.544000,1817
1157.544500,1803
1157.545000,1796
1157.545500,1810
1157.546000,1802
1157.546500,1798
1157.547000,1804
1157.547500,1807
1157.548000,1794
1157.548500,1801
1157.549000,1809
1157.549500,1799
1157.550000,1793
1157.550500,1809
1157.551000,1803
1157.551500,1795
1157.552000,1804
1157.552500,1816
1157.553000,1798
1157.553500,1821
1157.554000,1812
1157.554500,1800
1157.555000,1797
1157.555500,1812
1157.556000,1803
1157.556500,1795
1157.557000,1806
1157.557500,1812
1157.558000,1800
1157.558500,1820
1157.559000,1814
1157.559500,1806
1157.560000,1798
1157.560500,1811
1157.561000,1797
1157.561500,1796
1157.562000,1807
1157.562500,1817
1157.563000,1801
1157.563500,1808
1157.564000,1812
1157.564500,1801
1157.565000,1794
1157.565500,1809
1157.566000,1796
1157.566500,1796
1157.567000,1809
1157.567500,1813
1157.568000,1799
1157.568500,1811
1157.569000,1812
1157.569500,1801
1157.570000,1796
1157.570500,1807
1157.571000,1804
1157.571500,1798
1157.572000,1808
1157.572500,1818
1157.573000,1799
1157.573500,1797
1157.574000,1810
1157.574500,1797
1157.575000,1792
1157.575500,1806
1157.576000,1814
1157.576500,1799
1157.577000,1810
1157.577500,1818
1157.578000,1804
1157.578500,1798
1157.579000,1812
1157.579500,1803
1157.580000,1797
1157.580500,1809
1157.581000,1819
1157.581500,1806
1157.582000,1820
1157.582500,1826
1157.583000,1816
1157.583500,1811
1157.584000,1823
1157.584500,1814
1157.585000,1807
1157.585500,1819
1157.586000,1821
1157.586500,1798
1157.587000,1799
1157.587500,1801
1157.588000,1788
1157.588500,1785
1157.589000,1798
1157.589500,1788
1157.590000,1780
1157.590500,1788
1157.591000,1795
1157.591500,1781
1157.592000,1798
1157.592500,1808
1157.593000,1795
1157.593500,1790
1157.594000,1810
1157.594500,1802
1157.595000,1798
1157.595500,1811
1157.596000,1815
1157.596500,1802
1157.597000,1815
1157.597500,1817
1157.598000,1803
1157.598500,1800
1157.599000,1813
1157.599500,1804
1157.600000,1798
1157.600500,1809
1157.601000,1814
1157.601500,1801
1157.602000,1804
1157.602500,1816
1157.603000,1805
1157.603500,1801
1157.604000,1809
1157.604500,1815
1157.605000,1796
1157.605500,1808
1157.606000,1813
1157.606500,1800
1157.607000,1796
1157.607500,1818
1157.608000,1805
1157.608500,1798
1157.609000,1810
1157.609500,1817
1157.610000,1800
1157.610500,1807
1157.611000,1812
1157.611500,1801
1157.612000,1795
1157.612500,1811
1157.613000,1804
1157.613500,1798
1157.614000,1809
1157.614500,1813
1157.615000,1800
1157.615500,1811
1157.616000,1812
1157.616500,1803
1157.617000,1796
1157.617500,1814
1157.618000,1807
1157.618500,1798
1157.619000,1806
1157.619500,1810
1157.620000,1793
1157.620500,1811
1157.621000,1811
1157.621500,1800
1157.622000,1796
1157.622500,1811
1157.623000,1800
1157.623500,1798
1157.624000,1806
1157.624500,1813
1157.625000,1799
1157.625500,1793
1157.626000,1813
1157.626500,1803
1157.627000,1800
1157.627500,1811
1157.628000,1817
1157.628500,1798
1157.629000,1810
1157.629500,1813
1157.630000,1802
1157.630500,1796
1157.631000,1811
1157.631500,1802
1157.632000,1797
1157.632500,1812
1157.633000,1815
1157.633500,1797
1157.634000,1806
1157.634500,1811
1157.635000,1801
1157.635500,1796
1157.636000,1811
1157.636500,1805
1157.637000,1798
1157.637500,1810
1157.638000,1814
1157.638500,1797
1157.639000,1802
1157.639500,1807
1157.640000,1794
1157.640500,1793
1157.641000,1809
1157.641500,1808
1157.642000,1801
1157.642500,1811
1157.643000,1818
1157.643500,1802
1157.644000,1814
1157.644500,1815
1157.645000,1806
1157.645500,1802
1157.646000,1818
1157.646500,1824
1157.647000,1808
1157.647500,1822
1157.648000,1826
1157.648500,1810
1157.649000,1800
1157.649500,1808
1157.650000,1794
1157.650500,1784
1157.651000,1793
1157.651500,1794
1157.652000,1775
1157.652500,1792
1157.653000,1799
1157.653500,1788
1157.654000,1786
1157.654500,1805
1157.655000,1799
1157.655500,1799
1157.656000,1814
1157.656500,1823
1157.657000,1805
1157.657500,1808
1157.658000,1817
1157.658500,1805
1157.659000,1795
1157.659500,1812
1157.660000,1810
1157.660500,1806
1157.661000,1820
1157.661500,1824
1157.662000,1806
1157.662500,1833
1157.663000,1822
1157.663500,1809
1157.664000,1800
1157.664500,1814
1157.665000,1790
1157.665500,1787
1157.666000,1794
1157.666500,1794
1157.667000,1782
1157.667500,1783
1157.668000,1806
1157.668500,1799
1157.669000,1796
1157.669500,1812
1157.670000,1814
1157.670500,1798
1157.671000,1808
1157.671500,1813
1157.672000,1798
1157.672500,1797
1157.673000,1813
1157.673500,1804
1157.674000,1798
1157.674500,1812
1157.675000,1815
1157.675500,1800
1157.676000,1810
1157.676500,1814
1157.677000,1801
1157.677500,1794
1157.678000,1814
1157.678500,1804
1157.679000,1797
1157.679500,1809
1157.680000,1813
1157.680500,1798
1157.681000,1798
1157.681500,1810
1157.682000,1799
1157.682500,1800
1157.683000,1810
1157.683500,1803
1157.684000,1793
1157.684500,1808
1157.685000,1812
1157.685500,1800
1157.686000,1820
1157.686500,1813
1157.687000,1800
1157.687500,1798
1157.688000,1813
1157.688500,1799
1157.689000,1801
1157.689500,1809
1157.690000,1813
1157.690500,1799
1157.691000,1794
1157.691500,1810
1157.692000,1798
1157.692500,1796
1157.693000,1809
1157.693500,1816
1157.694000,1797
1157.694500,1809
1157.695000,1812
1157.695500,1798
1157.696000,1794
1157.696500,1809
1157.697000,1803
1157.697500,1799
1157.698000,1812
1157.698500,1815
1157.699000,1798
1157.699500,1804
1157.700000,1810
1157.700500,1796
1157.701000,1793
1157.701500,1808
1157.702000,1804
1157.702500,1800
1157.703000,1813
1157.703500,1818
1157.704000,1798
1157.704500,1807
1157.705000,1813
1157.705500,1801
1157.706000,1794
1157.706500,1812
1157.707000,1805
1157.707500,1802
1157.708000,1817
1157.708500,1825
1157.709000,1805
1157.709500,1807
1157.710000,1819
1157.710500,1807
1157.711000,1799
1157.711500,1810
1157.712000,1801
1157.712500,1797
1157.713000,1802
1157.713500,1809
1157.714000,1793
1157.714500,1811
1157.715000,1804
1157.715500,1792
1157.716000,1788
1157.716500,1806
1157.717000,1794
1157.717500,1795
1157.718000,1807
1157.718500,1814
1157.719000,1800
1157.719500,1810
1157.720000,1809
1157.720500,1802
1157.721000,1793
1157.721500,1808
1157.722000,1802
1157.722500,1795
1157.723000,1808
1157.723500,1814
1157.724000,1799
1157.724500,1795
1157.725000,1813
1157.725500,1802
1157.726000,1799
1157.726500,1813
1157.727000,1817
1157.727500,1802
1157.728000,1811
1157.728500,1814
1157.729000,1799
1157.729500,1796
1157.730000,1811
1157.730500,1805
1157.731000,1798
1157.731500,1810
1157.732000,1815
1157.732500,1797
1157.733000,1810
1157.733500,1814
1157.734000,1800
1157.734500,1797
1157.735000,1810
1157.735500,1804
1157.736000,1798
1157.736500,1810
1157.737000,1813
1157.737500,1800
1157.738000,1809
1157.738500,1811
1157.739000,1801
1157.739500,1800
1157.740000,1816
1157.740500,1809
1157.741000,1801
1157.741500,1814
1157.742000,1818
1157.742500,1812
1157.743000,1823
1157.743500,1825
1157.744000,1807
1157.744500,1798
1157.745000,1809
1157.745500,1795
1157.746000,1789
1157.746500,1803
1157.747000,1804
1157.747500,1790
1157.748000,1800
1157.748500,1806
1157.749000,1795
1157.749500,1792
1157.750000,1808
1157.750500,1804
1157.751000,1799
1157.751500,1813
1157.752000,1821
1157.752500,1807
1157.753000,1814
1157.753500,1816
1157.754000,1801
1157.754500,1790
1157.755000,1805
1157.755500,1794
1157.756000,1789
1157.756500,1804
1157.757000,1816
1157.757500,1802
1157.758000,1813
1157.758500,1813
1157.759000,1800
1157.759500,1791
1157.760000,1808
1157.760500,1800
1157.761000,1791
1157.761500,1805
1157.762000,1815
1157.762500,1803
1157.763000,1812
1157.763500,1818
1157.764000,1806
1157.764500,1804
1157.765000,1818
1157.765500,1809
1157.766000,1802
1157.766500,1813
1157.767000,1814
1157.767500,1796
1157.768000,1807
1157.768500,1811
1157.769000,1789
1157.769500,1786
1157.770000,1804
1157.770500,1797
1157.771000,1792
1157.771500,1804
1157.772000,1811
1157.772500,1799
1157.773000,1812
1157.773500,1815
1157.774000,1801
1157.774500,1802
1157.775000,1817
1157.775500,1807
1157.776000,1802
1157.776500,1814
1157.777000,1820
1157.777500,1802
1157.778000,1819
1157.778500,1817
1157.779000,1798
1157.779500,1790
1157.780000,1803
1157.780500,1795
1157.781000,1792
1157.781500,1804
1157.782000,1811
1157.782500,1796
1157.783000,1809
1157.783500,1812
1157.784000,1800
1157.784500,1794
1157.785000,1808
1157.785500,1804
1157.786000,1799
1157.786500,1809
1157.787000,1817
1157.787500,1800
1157.788000,1814
1157.788500,1817
1157.789000,1801
1157.789500,1799
1157.790000,1811
1157.790500,1804
1157.791000,1798
1157.791500,1811
1157.792000,1814
1157.792500,1796
1157.793000,1807
1157.793500,1813
1157.794000,1798
1157.794500,1794
1157.795000,1810
1157.795500,1804
1157.796000,1797
1157.796500,1807
1157.797000,1814
1157.797500,1801
1157.798000,1806
1157.798500,1815
1157.799000,1800
1157.799500,1792
1157.800000,1811
1157.800500,1801
1157.801000,1797
1157.801500,1807
1157.802000,1813
1157.802500,1798
1157.803000,1809
1157.803500,1811
1157.804000,1796
1157.804500,1792
1157.805000,1808
1157.805500,1796
1157.806000,1793
1157.806500,1806
1157.807000,1813
1157.807500,1802
1157.808000,1809
1157.808500,1815
1157.809000,1801
1157.809500,1800
1157.810000,1820
1157.810500,1806
1157.811000,1798
1157.811500,1809
1157.812000,1812
1157.812500,1803
1157.813000,1811
1157.813500,1819
1157.814000,1808
1157.814500,1806
1157.815000,1824
1157.815500,1811
1157.816000,1805
1157.816500,1815
1157.817000,1818
1157.817500,1799
1157.818000,1810
1157.818500,1812
1157.819000,1791
1157.819500,1786
1157.820000,1803
1157.820500,1795
1157.821000,1789
1157.821500,1802
1157.822000,1804
1157.822500,1785
1157.823000,1798
1157.823500,1806
1157.824000,1795
1157.824500,1793
1157.825000,1815
1157.825500,1810
1157.826000,1803
1157.826500,1821
1157.827000,1827
1157.827500,1812
1157.828000,1823
1157.828500,1826
1157.829000,1812
1157.829500,1801
1157.830000,1813
1157.830500,1798
1157.831000,1783
1157.831500,1792
1157.832000,1794
1157.832500,1774
1157.833000,1788
1157.833500,1801
1157.834000,1792
1157.834500,1789
1157.835000,1811
1157.835500,1803
1157.836000,1799
1157.836500,1808
1157.837000,1815
1157.837500,1802
1157.838000,1812
1157.838500,1816
1157.839000,1801
1157.839500,1797
1157.840000,1813
1157.840500,1805
1157.841000,1800
1157.841500,1810
1157.842000,1815
1157.842500,1798
1157.843000,1811
1157.843500,1815
1157.844000,1800
1157.844500,1793
1157.845000,1810
1157.845500,1801
1157.846000,1798
1157.846500,1808
1157.847000,1810
1157.847500,1804
1157.848000,1811
1157.848500,1814
1157.849000,1802
1157.849500,1797
1157.850000,1812
1157.850500,1804
1157.851000,1795
1157.851500,1808
1157.852000,1813
1157.852500,1805
1157.853000,1809
1157.853500,1815
1157.854000,1801
1157.854500,1799
1157.855000,1813
1157.855500,1809
1157.856000,1799
1157.856500,1809
1157.857000,1813
1157.857500,1804
1157.858000,1802
1157.858500,1814
1157.859000,1801
1157.859500,1796
1157.860000,1808
1157.860500,1805
1157.861000,1796
1157.861500,1806
1157.862000,1811
1157.862500,1796
1157.863000,1819
1157.863500,1811
1157.864000,1800
1157.864500,1794
1157.865000,1813
1157.865500,1800
1157.866000,1796
1157.866500,1810
1157.867000,1817
1157.867500,1804
1157.868000,1817
1157.868500,1814
1157.869000,1803
1157.869500,1796
1157.870000,1811
1157.870500,1805
1157.871000,1797
1157.871500,1808
1157.872000,1813
1157.872500,1802
1157.873000,1813
1157.873500,1814
1157.874000,1801
1157.874500,1797
1157.875000,1812
1157.875500,1803
1157.876000,1796
1157.876500,1804
1157.877000,1807
1157.877500,1799
1157.878000,1812
1157.878500,1811
1157.879000,1799
1157.879500,1791
1157.880000,1811
1157.880500,1797
1157.881000,1799
1157.881500,1809
1157.882000,1815
1157.882500,1800
1157.883000,1812
1157.883500,1810
1157.884000,1798
1157.884500,1794
1157.885000,1810
1157.885500,1800
1157.886000,1799
1157.886500,1811
1157.887000,1814
1157.887500,1803
1157.888000,1800
1157.888500,1814
1157.889000,1806
1157.889500,1803
1157.890000,1817
1157.890500,1821
1157.891000,1801
1157.891500,1812
1157.892000,1815
1157.892500,1800
1157.893000,1792
1157.893500,1808
1157.894000,1794
1157.894500,1789
1157.895000,1803
1157.895500,1809
1157.896000,1787
1157.896500,1804
1157.897000,1814
1157.897500,1804
1157.898000,1810
1157.898500,1827
1157.899000,1814
1157.899500,1809
1157.900000,1821
1157.900500,1822
1157.901000,1803
1157.901500,1813
1157.902000,1813
1157.902500,1797
1157.903000,1790
1157.903500,1800
1157.904000,1787
1157.904500,1782
1157.905000,1794
1157.905500,1803
1157.906000,1790
1157.906500,1796
1157.907000,1801
1157.907500,1793
1157.908000,1790
1157.908500,1811
1157.909000,1801
1157.909500,1800
1157.910000,1812
1157.910500,1815
1157.911000,1797
1157.911500,1807
1157.912000,1811
1157.912500,1802
1157.913000,1794
1157.913500,1814
1157.914000,1804
1157.914500,1797
1157.915000,1808
1157.915500,1814
1157.916000,1799
1157.916500,1810
1157.917000,1815
1157.917500,1803
1157.918000,1799
1157.918500,1814
1157.919000,1803
1157.919500,1795
1157.920000,1808
1157.920500,1812
1157.921000,1797
1157.921500,1807
1157.922000,1811
1157.922500,1802
1157.923000,1796
1157.923500,1815
1157.924000,1804
1157.924500,1798
1157.925000,1813
1157.925500,1818
1157.926000,1802
1157.926500,1801
1157.927000,1815
1157.927500,1803
1157.928000,1798
1157.928500,1814
1157.929000,1805
1157.929500,1798
1157.930000,1807
1157.930500,1813
1157.931000,1800
1157.931500,1801
1157.932000,1815
1157.932500,1806
1157.933000,1795
1157.933500,1813
1157.934000,1806
1157.934500,1797
1157.935000,1808
1157.935500,1812
1157.936000,1795
1157.936500,1802
1157.937000,1809
1157.937500,1803
1157.938000,1795
1157.938500,1810
1157.939000,1802
1157.939500,1794
1157.940000,1807
1157.940500,1812
1157.941000,1800
1157.941500,1815
1157.942000,1813
1157.942500,1813
1157.943000,1799
1157.943500,1811
1157.944000,1797
1157.944500,1795
1157.945000,1804
1157.945500,1810
1157.946000,1799
1157.946500,1798
1157.947000,1821
1157.947500,1815
1157.948000,1806
1157.948500,1815
1157.949000,1818
1157.949500,1798
1157.950000,1808
1157.950500,1809
1157.951000,1793
1157.951500,1787
1157.952000,1803
1157.952500,1796
1157.953000,1790
1157.953500,1809
1157.954000,1814
1157.954500,1796
1157.955000,1808
1157.955500,1813
1157.956000,1800
1157.956500,1795
1157.957000,1816
1157.957500,1810
1157.958000,1804
1157.958500,1818
1157.959000,1818
1157.959500,1799
1157.960000,1812
1157.960500,1813
1157.961000,1797
1157.961500,1788
1157.962000,1800
1157.962500,1793
1157.963000,1790
1157.963500,1803
1157.964000,1807
1157.964500,1793
1157.965000,1806
1157.965500,1810
1157.966000,1801
1157.966500,1792
1157.967000,1811
1157.967500,1808
1157.968000,1802
1157.968500,1812
1157.969000,1814
1157.969500,1798
1157.970000,1800
1157.970500,1812
1157.971000,1802
1157.971500,1796
1157.972000,1810
1157.972500,1809
1157.973000,1799
1157.973500,1811
1157.974000,1816
1157.974500,1799
1157.975000,1800
1157.975500,1813
1157.976000,1799
1157.976500,1795
1157.977000,1812
1157.977500,1808
1157.978000,1799
1157.978500,1811
1157.979000,1813
1157.979500,1798
1157.980000,1813
1157.980500,1811
1157.981000,1800
1157.981500,1795
1157.982000,1809
1157.982500,1799
1157.983000,1797
1157.983500,1809
1157.984000,1814
1157.984500,1797
1157.985000,1818
1157.985500,1809
1157.986000,1798
1157.986500,1796
1157.987000,1808
1157.987500,1803
1157.988000,1794
1157.988500,1805
1157.989000,1813
1157.989500,1797
1157.990000,1819
1157.990500,1813
1157.991000,1807
1157.991500,1801
1157.992000,1821
1157.992500,1807
1157.993000,1812
1157.993500,1823
1157.994000,1824
1157.994500,1807
1157.995000,1797
1157.995500,1811
1157.996000,1800
1157.996500,1800
1157.997000,1808
1157.997500,1810
1157.998000,1784
1157.998500,1795
1157.999000,1803
1157.999500,1790
1158.000000,1787
1158.000500,1806
1158.001000,1800
1158.001500,1795
1158.002000,1807
1158.002500,1813
1158.003000,1798
1158.003500,1808
1158.004000,1810
1158.004500,1797
1158.005000,1791
1158.005500,1810
1158.006000,1799
1158.006500,1794
1158.007000,1810
1158.007500,1822
1158.008000,1800
1158.008500,1809
1158.009000,1813
1158.009500,1801
1158.010000,1795
1158.010500,1812
1158.011000,1805
1158.011500,1800
1158.012000,1813
1158.012500,1820
1158.013000,1806
1158.013500,1812
1158.014000,1813
1158.014500,1802
1158.015000,1796
1158.015500,1810
1158.016000,1802
1158.016500,1797
1158.017000,1813
1158.017500,1822
1158.018000,1804
1158.018500,1810
1158.019000,1812
1158.019500,1797
1158.020000,1793
1158.020500,1810
1158.021000,1801
1158.021500,1790
1158.022000,1801
1158.022500,1809
1158.023000,1794
1158.023500,1804
1158.024000,1809
1158.024500,1799
1158.025000,1793
1158.025500,1808
1158.026000,1806
1158.026500,1799
1158.027000,1813
1158.027500,1821
1158.028000,1803
1158.028500,1815
1158.029000,1815
1158.029500,1803
1158.030000,1798
1158.030500,1811
1158.031000,1803
1158.031500,1791
1158.032000,1801
1158.032500,1813
1158.033000,1797
1158.033500,1800
1158.034000,1813
1158.034500,1802
1158.035000,1795
1158.035500,1809
1158.036000,1805
1158.036500,1796
1158.037000,1806
1158.037500,1816
1158.038000,1800
1158.038500,1814
1158.039000,1811
1158.039500,1801
1158.040000,1798
1158.040500,1813
1158.041000,1806
1158.041500,1801
1158.042000,1814
1158.042500,1818
1158.043000,1800
1158.043500,1823
1158.044000,1811
1158.044500,1801
1158.045000,1794
1158.045500,1804
1158.046000,1794
1158.046500,1792
1158.047000,1805
1158.047500,1817
1158.048000,1800
1158.048500,1812
1158.049000,1813
1158.049500,1799
1158.050000,1796
1158.050500,1810
1158.051000,1793
1158.051500,1793
1158.052000,1806
1158.052500,1814
1158.053000,1801
1158.053500,1811
1158.054000,1808
1158.054500,1799
1158.055000,1793
1158.055500,1810
1158.056000,1792
1158.056500,1796
1158.057000,1809
1158.057500,1822
1158.058000,1806
1158.058500,1821
1158.059000,1818
1158.059500,1805
1158.060000,1796
1158.060500,1811
1158.061000,1798
1158.061500,1796
1158.062000,1808
1158.062500,1817
1158.063000,1802
1158.063500,1819
1158.064000,1809
1158.064500,1801
1158.065000,1795
1158.065500,1810
1158.066000,1803
1158.066500,1797
1158.067000,1807
1158.067500,1815
1158.068000,1799
1158.068500,1820
1158.069000,1810
1158.069500,1798
1158.070000,1795
1158.070500,1814
1158.071000,1809
1158.071500,1801
1158.072000,1812
1158.072500,1824
1158.073000,1801
1158.073500,1816
1158.074000,1809
1158.074500,1795
1158.075000,1786
1158.075500,1802
1158.076000,1796
1158.076500,1796
1158.077000,1810
1158.077500,1818
1158.078000,1803
1158.078500,1820
1158.079000,1814
1158.079500,1803
1158.080000,1796
1158.080500,1809
1158.081000,1802
1158.081500,1808
1158.082000,1825
1158.082500,1834
1158.083000,1812
1158.083500,1825
1158.084000,1823
1158.084500,1812
1158.085000,1801
1158.085500,1810
1158.086000,1785
1158.086500,1781
1158.087000,1789
1158.087500,1789
1158.088000,1780
1158.088500,1794
1158.089000,1801
1158.089500,1791
1158.090000,1790
1158.090500,1809
1158.091000,1799
1158.091500,1801
1158.092000,1811
1158.092500,1817
1158.093000,1806
1158.093500,1821
1158.094000,1812
1158.094500,1801
1158.095000,1793
1158.095500,1804
1158.096000,1785
1158.096500,1788
1158.097000,1801
1158.097500,1806
1158.098000,1798
1158.098500,1812
1158.099000,1810
1158.099500,1801
1158.100000,1796
1158.100500,1808
1158.101000,1797
1158.101500,1800
1158.102000,1812
1158.102500,1816
1158.103000,1799
1158.103500,1814
1158.104000,1813
1158.104500,1802
1158.105000,1798
1158.105500,1811
1158.106000,1796
1158.106500,1799
1158.107000,1808
1158.107500,1817
1158.108000,1799
1158.108500,1799
1158.109000,1813
1158.109500,1803
1158.110000,1798
1158.110500,1812
1158.111000,1817
1158.111500,1794
1158.112000,1809
1158.112500,1816
1158.113000,1799
1158.113500,1794
1158.114000,1809
1158.114500,1799
1158.115000,1795
1158.115500,1810
1158.116000,1812
1158.116500,1795
1158.117000,1809
1158.117500,1816
1158.118000,1802
1158.118500,1799
1158.119000,1814
1158.119500,1807
1158.120000,1797
1158.120500,1812
1158.121000,1815
1158.121500,1800
1158.122000,1805
1158.122500,1813
1158.123000,1806
1158.123500,1799
1158.124000,1812
1158.124500,1802
1158.125000,1795
1158.125500,1809
1158.126000,1815
1158.126500,1797
1158.127000,1804
1158.127500,1815
1158.128000,1801
1158.128500,1797
1158.129000,1810
1158.129500,1803
1158.130000,1797
1158.130500,1811
1158.131000,1814
1158.131500,1798
1158.132000,1812
1158.132500,1822
1158.133000,1806
1158.133500,1804
1158.134000,1816
1158.134500,1805
1158.135000,1797
1158.135500,1810
1158.136000,1812
1158.136500,1795
1158.137000,1803
1158.137500,1808
1158.138000,1789
1158.138500,1789
1158.139000,1807
1158.139500,1801
1158.140000,1801
1158.140500,1819
1158.141000,1824
1158.141500,1806
1158.142000,1816
1158.142500,1820
1158.143000,1805
1158.143500,1797
1158.144000,1809
1158.144500,1797
1158.145000,1787
1158.145500,1799
1158.146000,1806
1158.146500,1789
1158.147000,1806
1158.147500,1812
1158.148000,1801
1158.148500,1797
1158.149000,1814
1158.149500,1802
1158.150000,1797
1158.150500,1805
1158.151000,1808
1158.151500,1790
1158.152000,1805
1158.152500,1814
1158.153000,1796
1158.153500,1794
1158.154000,1813
1158.154500,1807
1158.155000,1800
1158.155500,1813
1158.156000,1818
1158.156500,1800
1158.157000,1813
1158.157500,1817
1158.158000,1806
1158.158500,1801
1158.159000,1814
1158.159500,1803
1158.160000,1793
1158.160500,1806
1158.161000,1806
1158.161500,1787
1158.162000,1803
1158.162500,1809
1158.163000,1799
1158.163500,1798
1158.164000,1815
1158.164500,1809
1158.165000,1804
1158.165500,1815
1158.166000,1820
1158.166500,1804
1158.167000,1813
1158.167500,1818
1158.168000,1801
1158.168500,1793
1158.169000,1805
1158.169500,1789
1158.170000,1781
1158.170500,1796
1158.171000,1805
1158.171500,1787
1158.172000,1802
1158.172500,1814
1158.173000,1803
1158.173500,1798
1158.174000,1810
1158.174500,1802
1158.175000,1796
1158.175500,1809
1158.176000,1811
1158.176500,1796
1158.177000,1808
1158.177500,1814
1158.178000,1801
1158.178500,1796
1158.179000,1807
1158.179500,1804
1158.180000,1799
1158.180500,1810
1158.181000,1814
1158.181500,1800
1158.182000,1811
1158.182500,1812
1158.183000,1803
1158.183500,1798
1158.184000,1810
1158.184500,1801
1158.185000,1797
1158.185500,1808
1158.186000,1813
1158.186500,1798
1158.187000,1799
1158.187500,1816
1158.188000,1800
1158.188500,1797
1158.189000,1809
1158.189500,1807
1158.190000,1798
1158.190500,1811
1158.191000,1817
1158.191500,1800
1158.192000,1819
1158.192500,1812
1158.193000,1804
1158.193500,1799
1158.194000,1811
1158.194500,1803
1158.195000,1797
1158.195500,1809
1158.196000,1813
1158.196500,1797
1158.197000,1813
1158.197500,1813
1158.198000,1802
1158.198500,1795
1158.199000,1810
1158.199500,1794
1158.200000,1796
1158.200500,1807
1158.201000,1814
1158.201500,1797
1158.202000,1811
1158.202500,1815
1158.203000,1802
1158.203500,1796
1158.204000,1810
1158.204500,1795
1158.205000,1796
1158.205500,1807
1158.206000,1810
1158.206500,1796
1158.207000,1795
1158.207500,1819
1158.208000,1812
1158.208500,1810
1158.209000,1820
1158.209500,1825
1158.210000,1802
1158.210500,1811
1158.211000,1813
1158.211500,1795
1158.212000,1785
1158.212500,1804
1158.213000,1792
1158.213500,1793
1158.214000,1806
1158.214500,1812
1158.215000,1795
1158.215500,1804
1158.216000,1811
1158.216500,1799
1158.217000,1794
1158.217500,1812
1158.218000,1803
1158.218500,1797
1158.219000,1809
1158.219500,1811
1158.220000,1798
1158.220500,1807
1158.221000,1811
1158.221500,1800
1158.222000,1795
1158.222500,1816
1158.223000,1813
1158.223500,1805
1158.224000,1813
1158.224500,1817
1158.225000,1803
1158.225500,1802
1158.226000,1814
1158.226500,1797
1158.227000,1793
1158.227500,1809
1158.228000,1803
1158.228500,1795
1158.229000,1801
1158.229500,1810
1158.230000,1796
1158.230500,1812
1158.231000,1813
1158.231500,1804
1158.232000,1803
1158.232500,1819
1158.233000,1824
1158.233500,1801
1158.234000,1814
1158.234500,1815
1158.235000,1798
1158.235500,1793
1158.236000,1810
1158.236500,1800
1158.237000,1789
1158.237500,1804
1158.238000,1809
1158.238500,1791
1158.239000,1802
1158.239500,1809
1158.240000,1796
1158.240500,1793
1158.241000,1809
1158.241500,1800
1158.242000,1794
1158.242500,1807
1158.243000,1816
1158.243500,1797
1158.244000,1810
1158.244500,1814
1158.245000,1798
1158.245500,1794
1158.246000,1812
1158.246500,1802
1158.247000,1795
1158.247500,1810
1158.248000,1815
1158.248500,1798
1158.249000,1809
1158.249500,1811
1158.250000,1797
1158.250500,1791
1158.251000,1807
1158.251500,1798
1158.252000,1795
1158.252500,1807
1158.253000,1815
1158.253500,1802
1158.254000,1817
1158.254500,1820
1158.255000,1808
1158.255500,1802
1158.256000,1817
1158.256500,1810
1158.257000,1802
1158.257500,1819
1158.258000,1821
1158.258500,1799
1158.259000,1803
1158.259500,1805
1158.260000,1787
1158.260500,1782
1158.261000,1799
1158.261500,1795
1158.262000,1793
1158.262500,1809
1158.263000,1815
1158.263500,1800
1158.264000,1809
1158.264500,1812
1158.265000,1799
1158.265500,1791
1158.266000,1809
1158.266500,1799
1158.267000,1795
1158.267500,1809
1158.268000,1816
1158.268500,1805
1158.269000,1819
1158.269500,1820
1158.270000,1807
1158.270500,1802
1158.271000,1818
1158.271500,1806
1158.272000,1800
1158.272500,1809
1158.273000,1816
1158.273500,1796
1158.274000,1801
1158.274500,1801
1158.275000,1792
1158.275500,1788
1158.276000,1806
1158.276500,1801
1158.277000,1797
1158.277500,1815
1158.278000,1817
1158.278500,1802
1158.279000,1807
1158.279500,1812
1158.280000,1800
1158.280500,1795
1158.281000,1812
1158.281500,1804
1158.282000,1797
1158.282500,1813
1158.283000,1813
1158.283500,1801
1158.284000,1798
1158.284500,1811
1158.285000,1800
1158.285500,1797
1158.286000,1812
1158.286500,1803
1158.287000,1796
1158.287500,1809
1158.288000,1816
1158.288500,1804
1158.289000,1805
1158.289500,1813
1158.290000,1799
1158.290500,1797
1158.291000,1812
1158.291500,1802
1158.292000,1797
1158.292500,1811
1158.293000,1817
1158.293500,1801
1158.294000,1801
1158.294500,1812
1158.295000,1801
1158.295500,1794
1158.296000,1810
1158.296500,1808
1158.297000,1802
1158.297500,1812
1158.298000,1818
1158.298500,1803
1158.299000,1822
1158.299500,1814
1158.300000,1801
1158.300500,1793
1158.301000,1807
1158.301500,1797
1158.302000,1789
1158.302500,1808
1158.303000,1810
1158.303500,1797
1158.304000,1808
1158.304500,1810
1158.305000,1800
1158.305500,1794
1158.306000,1812
1158.306500,1801
1158.307000,1797
1158.307500,1810
1158.308000,1817
1158.308500,1802
1158.309000,1796
1158.309500,1812
1158.310000,1800
1158.310500,1796
1158.311000,1810
1158.311500,1812
1158.312000,1797
1158.312500,1814
1158.313000,1814
1158.313500,1802
1158.314000,1795
1158.314500,1811
1158.315000,1801
1158.315500,1796
1158.316000,1808
1158.316500,1813
1158.317000,1793
1158.317500,1807
1158.318000,1811
1158.318500,1801
1158.319000,1794
1158.319500,1812
1158.320000,1803
1158.320500,1793
1158.321000,1805
1158.321500,1813
1158.322000,1797
1158.322500,1807
1158.323000,1811
1158.323500,1799
1158.324000,1793
1158.324500,1809
1158.325000,1804
1158.325500,1796
1158.326000,1812
1158.326500,1817
1158.327000,1801
1158.327500,1812
1158.328000,1816
1158.328500,1806
1158.329000,1798
1158.329500,1812
1158.330000,1804
1158.330500,1795
1158.331000,1807
1158.331500,1814
1158.332000,1803
1158.332500,1812
1158.333000,1818
1158.333500,1809
1158.334000,1806
1158.334500,1820
1158.335000,1810
1158.335500,1804
1158.336000,1813
1158.336500,1814
1158.337000,1794
1158.337500,1787
1158.338000,1800
1158.338500,1791
1158.339000,1782
1158.339500,1796
1158.340000,1794
1158.340500,1787
1158.341000,1801
1158.341500,1809
1158.342000,1797
1158.342500,1805
1158.343000,1813
1158.343500,1801
1158.344000,1796
1158.344500,1809
1158.345000,1804
1158.345500,1799
1158.346000,1816
1158.346500,1819
1158.347000,1806
1158.347500,1814
1158.348000,1823
1158.348500,1812
1158.349000,1806
1158.349500,1822
1158.350000,1814
1158.350500,1799
1158.351000,1801
1158.351500,1799
1158.352000,1783
1158.352500,1814
1158.353000,1811
1158.353500,1805
1158.354000,1799
1158.354500,1815
1158.355000,1805
1158.355500,1803
1158.356000,1811
1158.356500,1814
1158.357000,1798
1158.357500,1797
1158.358000,1807
1158.358500,1795
1158.359000,1788
1158.359500,1804
1158.360000,1808
1158.360500,1793
1158.361000,1805
1158.361500,1809
1158.362000,1800
1158.362500,1797
1158.363000,1814
1158.363500,1801
1158.364000,1794
1158.364500,1808
1158.365000,1813
1158.365500,1796
1158.366000,1806
1158.366500,1813
1158.367000,1798
1158.367500,1802
1158.368000,1813
1158.368500,1804
1158.369000,1797
1158.369500,1809
1158.370000,1814
1158.370500,1795
1158.371000,1811
1158.371500,1812
1158.372000,1800
1158.372500,1800
1158.373000,1813
1158.373500,1804
1158.374000,1798
1158.374500,1810
1158.375000,1815
1158.375500,1796
1158.376000,1807
1158.376500,1813
1158.377000,1799
1158.377500,1794
1158.378000,1813
1158.378500,1802
1158.379000,1795
1158.379500,1806
1158.380000,1813
1158.380500,1799
1158.381000,1807
1158.381500,1811
1158.382000,1799
1158.382500,1797
1158.383000,1813
1158.383500,1803
1158.384000,1794
1158.384500,1809
1158.385000,1814
1158.385500,1798
1158.386000,1808
1158.386500,1811
1158.387000,1799
1158.387500,1795
1158.388000,1812
1158.388500,1804
1158.389000,1796
1158.389500,1811
1158.390000,1814
1158.390500,1799
1158.391000,1807
1158.391500,1811
1158.392000,1798
1158.392500,1796
1158.393000,1808
1158.393500,1801
1158.394000,1795
1158.394500,1809
1158.395000,1812
1158.395500,1798
1158.396000,1810
1158.396500,1812
1158.397000,1800
1158.397500,1796
1158.398000,1818
1158.398500,1812
1158.399000,1798
1158.399500,1811
1158.400000,1816
1158.400500,1797
1158.401000,1808
1158.401500,1812
1158.402000,1799
1158.402500,1796
1158.403000,1813
1158.403500,1807
1158.404000,1802
1158.404500,1816
1158.405000,1819
1158.405500,1805
1158.406000,1811
1158.406500,1818
1158.407000,1800
1158.407500,1799
1158.408000,1808
1158.408500,1800
1158.409000,1791
1158.409500,1803
1158.410000,1807
1158.410500,1792
1158.411000,1802
1158.411500,1806
1158.412000,1794
1158.412500,1790
1158.413000,1812
1158.413500,1809
1158.414000,1800
1158.414500,1812
1158.415000,1815
1158.415500,1801
1158.416000,1823
1158.416500,1810
1158.417000,1798
1158.417500,1793
1158.418000,1821
1158.418500,1818
1158.419000,1806
1158.419500,1815
1158.420000,1817
1158.420500,1803
1158.421000,1797
1158.421500,1810
1158.422000,1802
1158.422500,1797
1158.423000,1810
1158.423500,1811
1158.424000,1795
1158.424500,1805
1158.425000,1812
1158.425500,1800
1158.426000,1796
1158.426500,1809
1158.427000,1800
1158.427500,1794
1158.428000,1804
1158.428500,1809
1158.429000,1791
1158.429500,1811
1158.430000,1820
1158.430500,1807
1158.431000,1801
1158.431500,1819
1158.432000,1810
1158.432500,1801
1158.433000,1816
1158.433500,1818
1158.434000,1800
1158.434500,1792
1158.435000,1801
1158.435500,1786
1158.436000,1783
1158.436500,1802
1158.437000,1800
1158.437500,1800
1158.438000,1809
1158.438500,1813
1158.439000,1798
1158.439500,1803
1158.440000,1808
1158.440500,1794
1158.441000,1788
1158.441500,1803
1158.442000,1811
1158.442500,1800
1158.443000,1811
1158.443500,1816
1158.444000,1801
1158.444500,1794
1158.445000,1811
1158.445500,1801
1158.446000,1795
1158.446500,1807
1158.447000,1813
1158.447500,1802
1158.448000,1810
1158.448500,1811
1158.449000,1798
1158.449500,1793
1158.450000,1810
1158.450500,1800
1158.451000,1792
1158.451500,1808
1158.452000,1815
1158.452500,1807
1158.453000,1815
1158.453500,1820
1158.454000,1805
1158.454500,1799
1158.455000,1812
1158.455500,1805
1158.456000,1798
1158.456500,1808
1158.457000,1815
1158.457500,1800
1158.458000,1810
1158.458500,1815
1158.459000,1799
1158.459500,1793
1158.460000,1810
1158.460500,1803
1158.461000,1794
1158.461500,1807
1158.462000,1811
1158.462500,1798
1158.463000,1808
1158.463500,1822
1158.464000,1811
1158.464500,1806
1158.465000,1817
1158.465500,1807
1158.466000,1799
1158.466500,1807
1158.467000,1809
1158.467500,1797
1158.468000,1809
1158.468500,1807
1158.469000,1792
1158.469500,1789
1158.470000,1806
1158.470500,1788
1158.471000,1796
1158.471500,1807
1158.472000,1815
1158.472500,1801
1158.473000,1795
1158.473500,1818
1158.474000,1804
1158.474500,1798
1158.475000,1810
1158.475500,1816
1158.476000,1794
1158.476500,1807
1158.477000,1810
1158.477500,1800
1158.478000,1796
1158.478500,1811
1158.479000,1801
1158.479500,1796
1158.480000,1808
1158.480500,1813
1158.481000,1797
1158.481500,1808
1158.482000,1816
1158.482500,1803
1158.483000,1796
1158.483500,1814
1158.484000,1803
1158.484500,1798
1158.485000,1808
1158.485500,1813
1158.486000,1794
1158.486500,1808
1158.487000,1813
1158.487500,1800
1158.488000,1796
1158.488500,1815
1158.489000,1802
1158.489500,1797
1158.490000,1809
1158.490500,1796
1158.491000,1799
1158.491500,1809
1158.492000,1815
1158.492500,1801
1158.493000,1819
1158.493500,1821
1158.494000,1808
1158.494500,1796
1158.495000,1812
1158.495500,1796
1158.496000,1794
1158.496500,1804
1158.497000,1806
1158.497500,1794
1158.498000,1806
1158.498500,1810
1158.499000,1798
1158.499500,1794
1158.500000,1810
1158.500500,1798
1158.501000,1794
1158.501500,1805
1158.502000,1812
1158.502500,1801
1158.503000,1806
1158.503500,1813
1158.504000,1802
1158.504500,1795
1158.505000,1809
1158.505500,1795
1158.506000,1797
1158.506500,1809
1158.507000,1813
1158.507500,1804
1158.508000,1799
1158.508500,1814
1158.509000,1802
1158.509500,1797
1158.510000,1812
1158.510500,1815
1158.511000,1795
1158.511500,1809
1158.512000,1813
1158.512500,1800
1158.513000,1799
1158.513500,1817
1158.514000,1802
1158.514500,1797
1158.515000,1806
1158.515500,1812
1158.516000,1796
1158.516500,1814
1158.517000,1825
1158.517500,1811
1158.518000,1804
1158.518500,1821
1158.519000,1808
1158.519500,1802
1158.520000,1812
1158.520500,1816
1158.521000,1794
1158.521500,1805
1158.522000,1809
1158.522500,1795
1158.523000,1788
1158.523500,1807
1158.524000,1796
1158.524500,1789
1158.525000,1805
1158.525500,1811
1158.526000,1795
1158.526500,1803
1158.527000,1807
1158.527500,1794
1158.528000,1792
1158.528500,1810
1158.529000,1799
1158.529500,1794
1158.530000,1809
1158.530500,1813
1158.531000,1794
1158.531500,1805
1158.532000,1815
1158.532500,1809
1158.533000,1809
1158.533500,1822
1158.534000,1808
1158.534500,1799
1158.535000,1810
1158.535500,1814
1158.536000,1797
1158.536500,1802
1158.537000,1806
1158.537500,1795
1158.538000,1790
1158.538500,1809
1158.539000,1799
1158.539500,1792
1158.540000,1807
1158.540500,1814
1158.541000,1802
1158.541500,1816
1158.542000,1817
1158.542500,1809
1158.543000,1800
1158.543500,1815
1158.544000,1803
1158.544500,1797
1158.545000,1811
1158.545500,1816
1158.546000,1797
1158.546500,1807
1158.547000,1812
1158.547500,1798
1158.548000,1796
1158.548500,1810
1158.549000,1800
1158.549500,1795
1158.550000,1809
1158.550500,1814
1158.551000,1799
1158.551500,1811
1158.552000,1817
1158.552500,1809
1158.553000,1800
1158.553500,1816
1158.554000,1806
1158.554500,1800
1158.555000,1812
1158.555500,1814
1158.556000,1800
1158.556500,1807
1158.557000,1816
1158.557500,1804
1158.558000,1800
1158.558500,1814
1158.559000,1804
1158.559500,1796
1158.560000,1805
1158.560500,1806
1158.561000,1785
1158.561500,1800
1158.562000,1806
1158.562500,1795
1158.563000,1793
1158.563500,1811
1158.564000,1802
1158.564500,1798
1158.565000,1811
1158.565500,1815
1158.566000,1799
1158.566500,1809
1158.567000,1814
1158.567500,1800
1158.568000,1799
1158.568500,1813
1158.569000,1802
1158.569500,1796
1158.570000,1808
1158.570500,1816
1158.571000,1797
1158.571500,1808
1158.572000,1814
1158.572500,1801
1158.573000,1796
1158.573500,1813
1158.574000,1802
1158.574500,1799
1158.575000,1808
1158.575500,1813
1158.576000,1796
1158.576500,1808
1158.577000,1812
1158.577500,1805
1158.578000,1798
1158.578500,1816
1158.579000,1802
1158.579500,1795
1158.580000,1808
1158.580500,1814
1158.581000,1800
1158.581500,1805
1158.582000,1811
1158.582500,1802
1158.583000,1795
1158.583500,1811
1158.584000,1802
1158.584500,1795
1158.585000,1809
1158.585500,1814
1158.586000,1797
1158.586500,1808
1158.587000,1809
1158.587500,1800
1158.588000,1795
1158.588500,1813
1158.589000,1801
1158.589500,1797
1158.590000,1812
1158.590500,1814
1158.591000,1798
1158.591500,1810
1158.592000,1814
1158.592500,1800
1158.593000,1796
1158.593500,1813
1158.594000,1802
1158.594500,1795
1158.595000,1812
1158.595500,1820
1158.596000,1803
1158.596500,1817
1158.597000,1822
1158.597500,1809
1158.598000,1800
1158.598500,1813
1158.599000,1799
1158.599500,1792
1158.600000,1801
1158.600500,1805
1158.601000,1786
1158.601500,1799
1158.602000,1805
1158.602500,1793
1158.603000,1794
1158.603500,1821
1158.604000,1813
1158.604500,1810
1158.605000,1822
1158.605500,1828
1158.606000,1809
1158.606500,1816
1158.607000,1820
1158.607500,1799
1158.608000,1786
1158.608500,1797
1158.609000,1787
1158.609500,1782
1158.610000,1803
1158.610500,1809
1158.611000,1787
1158.611500,1800
1158.612000,1803
1158.612500,1796
1158.613000,1794
1158.613500,1813
1158.614000,1805
1158.614500,1800
1158.615000,1811
1158.615500,1818
1158.616000,1799
1158.616500,1812
1158.617000,1814
1158.617500,1800
1158.618000,1792
1158.618500,1804
1158.619000,1793
1158.619500,1793
1158.620000,1805
1158.620500,1811
1158.621000,1791
1158.621500,1807
1158.622000,1816
1158.622500,1806
1158.623000,1803
1158.623500,1818
1158.624000,1806
1158.624500,1797
1158.625000,1810
1158.625500,1817
1158.626000,1797
1158.626500,1808
1158.627000,1815
1158.627500,1805
1158.628000,1796
1158.628500,1813
1158.629000,1800
1158.629500,1796
1158.630000,1809
1158.630500,1818
1158.631000,1795
1158.631500,1808
1158.632000,1814
1158.632500,1801
1158.633000,1795
1158.633500,1813
1158.634000,1801
1158.634500,1796
1158.635000,1811
1158.635500,1802
1158.636000,1795
1158.636500,1805
1158.637000,1811
1158.637500,1798
1158.638000,1807
1158.638500,1812
1158.639000,1801
1158.639500,1797
1158.640000,1811
1158.640500,1798
1158.641000,1799
1158.641500,1809
1158.642000,1814
1158.642500,1805
1158.643000,1816
1158.643500,1817
1158.644000,1800
1158.644500,1793
1158.645000,1810
1158.645500,1796
1158.646000,1795
1158.646500,1806
1158.647000,1811
1158.647500,1798
1158.648000,1815
1158.648500,1813
1158.649000,1802
1158.649500,1796
1158.650000,1812
1158.650500,1796
1158.651000,1797
1158.651500,1806
1158.652000,1813
1158.652500,1798
1158.653000,1823
1158.653500,1816
1158.654000,1801
1158.654500,1797
1158.655000,1811
1158.655500,1800
1158.656000,1796
1158.656500,1808
1158.657000,1813
1158.657500,1803
1158.658000,1826
1158.658500,1822
1158.659000,1810
1158.659500,1804
1158.660000,1816
1158.660500,1805
1158.661000,1798
1158.661500,1809
1158.662000,1811
1158.662500,1799
1158.663000,1817
1158.663500,1808
1158.664000,1793
1158.664500,1789
1158.665000,1803
1158.665500,1791
1158.666000,1791
1158.666500,1803
1158.667000,1812
1158.667500,1802
1158.668000,1823
1158.668500,1814
1158.669000,1800
1158.669500,1794
1158.670000,1809
1158.670500,1798
1158.671000,1794
1158.671500,1806
1158.672000,1812
1158.672500,1799
1158.673000,1814
1158.673500,1815
1158.674000,1802
1158.674500,1796
1158.675000,1813
1158.675500,1808
1158.676000,1801
1158.676500,1810
1158.677000,1816
1158.677500,1800
1158.678000,1816
1158.678500,1815
1158.679000,1802
1158.679500,1796
1158.680000,1810
1158.680500,1804
1158.681000,1797
1158.681500,1809
1158.682000,1813
1158.682500,1802
1158.683000,1814
1158.683500,1813
1158.684000,1801
1158.684500,1798
1158.685000,1812
1158.685500,1804
1158.686000,1797
1158.686500,1809
1158.687000,1816
1158.687500,1802
1158.688000,1811
1158.688500,1814
1158.689000,1801
1158.689500,1797
1158.690000,1816
1158.690500,1813
1158.691000,1807
1158.691500,1816
1158.692000,1820
1158.692500,1804
1158.693000,1811
1158.693500,1813
1158.694000,1796
1158.694500,1788
1158.695000,1807
1158.695500,1801
1158.696000,1799
1158.696500,1811
1158.697000,1818
1158.697500,1801
1158.698000,1809
1158.698500,1811
1158.699000,1799
1158.699500,1794
1158.700000,1805
1158.700500,1787
1158.701000,1781
1158.701500,1792
1158.702000,1806
1158.702500,1793
1158.703000,1816
1158.703500,1812
1158.704000,1799
1158.704500,1796
1158.705000,1811
1158.705500,1801
1158.706000,1796
1158.706500,1810
1158.707000,1814
1158.707500,1798
1158.708000,1820
1158.708500,1813
1158.709000,1800
1158.709500,1797
1158.710000,1812
1158.710500,1801
1158.711000,1796
1158.711500,1808
1158.712000,1812
1158.712500,1799
1158.713000,1806
1158.713500,1812
1158.714000,1799
1158.714500,1795
1158.715000,1809
1158.715500,1805
1158.716000,1800
1158.716500,1811
1158.717000,1815
1158.717500,1806
1158.718000,1813
1158.718500,1823
1158.719000,1809
1158.719500,1807
1158.720000,1821
1158.720500,1812
1158.721000,1796
1158.721500,1806
1158.722000,1813
1158.722500,1796
1158.723000,1806
1158.723500,1807
1158.724000,1792
1158.724500,1786
1158.725000,1801
1158.725500,1792
1158.726000,1791
1158.726500,1802
1158.727000,1812
1158.727500,1796
1158.728000,1820
1158.728500,1809
1158.729000,1800
1158.729500,1795
1158.730000,1813
1158.730500,1800
1158.731000,1799
1158.731500,1808
1158.732000,1812
1158.732500,1802
1158.733000,1816
1158.733500,1810
1158.734000,1800
1158.734500,1795
1158.735000,1812
1158.735500,1804
1158.736000,1798
1158.736500,1808
1158.737000,1812
1158.737500,1802
1158.738000,1817
1158.738500,1808
1158.739000,1797
1158.739500,1793
1158.740000,1812
1158.740500,1805
1158.741000,1800
1158.741500,1812
1158.742000,1814
1158.742500,1803
1158.743000,1821
1158.743500,1815
1158.744000,1803
1158.744500,1799
1158.745000,1812
1158.745500,1804
1158.746000,1798
1158.746500,1809
1158.747000,1814
1158.747500,1803
1158.748000,1821
1158.748500,1813
1158.749000,1800
1158.749500,1793
1158.750000,1810
1158.750500,1803
1158.751000,1799
1158.751500,1812
1158.752000,1819
1158.752500,1803
1158.753000,1823
1158.753500,1817
1158.754000,1804
1158.754500,1799
1158.755000,1812
1158.755500,1804
1158.756000,1795
1158.756500,1803
1158.757000,1804
1158.757500,1795
1158.758000,1793
1158.758500,1809
1158.759000,1797
1158.759500,1793
1158.760000,1808
1158.760500,1805
1158.761000,1797
1158.761500,1808
1158.762000,1815
1158.762500,1801
1158.763000,1806
1158.763500,1814
1158.764000,1800
1158.764500,1795
1158.765000,1810
1158.765500,1802
1158.766000,1795
1158.766500,1805
1158.767000,1812
1158.767500,1797
1158.768000,1802
1158.768500,1813
1158.769000,1801
1158.769500,1793
1158.770000,1807
1158.770500,1804
1158.771000,1796
1158.771500,1803
1158.772000,1811
1158.772500,1800
1158.773000,1801
1158.773500,1815
1158.774000,1801
1158.774500,1799
1158.775000,1816
1158.775500,1811
1158.776000,1808
1158.776500,1819
1158.777000,1825
1158.777500,1809
1158.778000,1828
1158.778500,1816
1158.779000,1800
1158.779500,1796
1158.780000,1814
1158.780500,1803
1158.781000,1792
1158.781500,1798
1158.782000,1798
1158.782500,1788
1158.783000,1805
1158.783500,1808
1158.784000,1796
1158.784500,1791
1158.785000,1808
1158.785500,1793
1158.786000,1797
1158.786500,1807
1158.787000,1812
1158.787500,1801
1158.788000,1798
1158.788500,1817
1158.789000,1804
1158.789500,1805
1158.790000,1818
1158.790500,1822
1158.791000,1802
1158.791500,1814
1158.792000,1815
1158.792500,1799
1158.793000,1796
1158.793500,1811
1158.794000,1796
1158.794500,1787
1158.795000,1801
1158.795500,1808
1158.796000,1791
1158.796500,1804
1158.797000,1806
1158.797500,1797
1158.798000,1795
1158.798500,1809
1158.799000,1802
1158.799500,1797
1158.800000,1812
1158.800500,1816
1158.801000,1796
1158.801500,1810
1158.802000,1813
1158.802500,1802
1158.803000,1798
1158.803500,1814
1158.804000,1802
1158.804500,1797
1158.805000,1808
1158.805500,1811
1158.806000,1794
1158.806500,1805
1158.807000,1811
1158.807500,1803
1158.808000,1798
1158.808500,1817
1158.809000,1807
1158.809500,1801
1158.810000,1814
1158.810500,1817
1158.811000,1801
1158.811500,1812
1158.812000,1815
1158.812500,1803
1158.813000,1794
1158.813500,1811
1158.814000,1797
1158.814500,1790
1158.815000,1805
1158.815500,1811
1158.816000,1800
1158.816500,1807
1158.817000,1815
1158.817500,1806
1158.818000,1802
1158.818500,1816
1158.819000,1804
1158.819500,1799
1158.820000,1812
1158.820500,1814
1158.821000,1797
1158.821500,1801
1158.822000,1804
1158.822500,1793
1158.823000,1786
1158.823500,1808
1158.824000,1801
1158.824500,1798
1158.825000,1814
1158.825500,1815
1158.826000,1797
1158.826500,1809
1158.827000,1812
1158.827500,1802
1158.828000,1799
1158.828500,1810
1158.829000,1806
1158.829500,1798
1158.830000,1811
1158.830500,1814
1158.831000,1797
1158.831500,1807
1158.832000,1814
1158.832500,1803
1158.833000,1795
1158.833500,1811
1158.834000,1803
1158.834500,1796
1158.835000,1806
1158.835500,1812
1158.836000,1797
1158.836500,1805
1158.837000,1811
1158.837500,1804
1158.838000,1795
1158.838500,1810
1158.839000,1805
1158.839500,1798
1158.840000,1808
1158.840500,1812
1158.841000,1796
1158.841500,1818
1158.842000,1813
1158.842500,1804
1158.843000,1796
1158.843500,1815
1158.844000,1800
1158.844500,1796
1158.845000,1806
1158.845500,1809
1158.846000,1795
1158.846500,1789
1158.847000,1806
1158.847500,1800
1158.848000,1797
1158.848500,1810
1158.849000,1816
1158.849500,1794
1158.850000,1809
1158.850500,1816
1158.851000,1801
1158.851500,1798
1158.852000,1818
1158.852500,1812
1158.853000,1809
1158.853500,1825
1158.854000,1827
1158.854500,1805
1158.855000,1815
1158.855500,1813
1158.856000,1794
1158.856500,1785
1158.857000,1798
1158.857500,1788
1158.858000,1783
1158.858500,1800
1158.859000,1808
1158.859500,1792
1158.860000,1806
1158.860500,1813
1158.861000,1798
1158.861500,1794
1158.862000,1811
1158.862500,1803
1158.863000,1803
1158.863500,1819
1158.864000,1823
1158.864500,1807
1158.865000,1816
1158.865500,1814
1158.866000,1801
1158.866500,1795
1158.867000,1810
1158.867500,1802
1158.868000,1798
1158.868500,1808
1158.869000,1805
1158.869500,1788
1158.870000,1797
1158.870500,1809
1158.871000,1799
1158.871500,1796
1158.872000,1813
1158.872500,1803
1158.873000,1801
1158.873500,1811
1158.874000,1813
1158.874500,1802
1158.875000,1806
1158.875500,1812
1158.876000,1799
1158.876500,1795
1158.877000,1809
1158.877500,1804
1158.878000,1799
1158.878500,1810
1158.879000,1816
1158.879500,1798
1158.880000,1810
1158.880500,1815
1158.881000,1801
1158.881500,1794
1158.882000,1810
1158.882500,1805
1158.883000,1804
1158.883500,1816
1158.884000,1818
1158.884500,1803
1158.885000,1810
1158.885500,1815
1158.886000,1804
1158.886500,1798
1158.887000,1810
1158.887500,1802
1158.888000,1794
1158.888500,1803
1158.889000,1808
1158.889500,1795
1158.890000,1805
1158.890500,1810
1158.891000,1800
1158.891500,1799
1158.892000,1814
1158.892500,1809
1158.893000,1803
1158.893500,1814
1158.894000,1817
1158.894500,1799
1158.895000,1810
1158.895500,1811
1158.896000,1797
1158.896500,1790
1158.897000,1802
1158.897500,1792
1158.898000,1789
1158.898500,1802
1158.899000,1805
1158.899500,1796
1158.900000,1815
1158.900500,1817
1158.901000,1805
1158.901500,1797
1158.902000,1815
1158.902500,1815
1158.903000,1809
1158.903500,1819
1158.904000,1821
1158.904500,1804
1158.905000,1807
1158.905500,1813
1158.906000,1799
1158.906500,1791
1158.907000,1805
1158.907500,1794
1158.908000,1789
1158.908500,1803
1158.909000,1809
1158.909500,1794
1158.910000,1801
1158.910500,1808
1158.911000,1796
1158.911500,1793
1158.912000,1809
1158.912500,1810
1158.913000,1795
1158.913500,1810
1158.914000,1815
1158.914500,1800
1158.915000,1802
1158.915500,1815
1158.916000,1804
1158.916500,1799
1158.917000,1816
1158.917500,1811
1158.918000,1800
1158.918500,1811
1158.919000,1815
1158.919500,1800
1158.920000,1801
1158.920500,1816
1158.921000,1803
1158.921500,1797
1158.922000,1811
1158.922500,1805
1158.923000,1800
1158.923500,1813
1158.924000,1812
1158.924500,1797
1158.925000,1803
1158.925500,1812
1158.926000,1799
1158.926500,1794
1158.927000,1812
1158.927500,1807
1158.928000,1798
1158.928500,1808
1158.929000,1813
1158.929500,1797
1158.930000,1799
1158.930500,1812
1158.931000,1802
1158.931500,1794
1158.932000,1812
1158.932500,1807
1158.933000,1799
1158.933500,1809
1158.934000,1816
1158.934500,1800
1158.935000,1820
1158.935500,1813
1158.936000,1799
1158.936500,1793
1158.937000,1806
1158.937500,1797
1158.938000,1792
1158.938500,1810
1158.939000,1814
1158.939500,1802
1158.940000,1826
1158.940500,1814
1158.941000,1801
1158.941500,1795
1158.942000,1808
1158.942500,1799
1158.943000,1797
1158.943500,1809
1158.944000,1816
1158.944500,1805
1158.945000,1818
1158.945500,1815
1158.946000,1806
1158.946500,1801
1158.947000,1811
1158.947500,1799
1158.948000,1794
1158.948500,1802
1158.949000,1809
1158.949500,1796
1158.950000,1810
1158.950500,1811
1158.951000,1808
1158.951500,1806
1158.952000,1821
1158.952500,1812
1158.953000,1807
1158.953500,1817
1158.954000,1818
1158.954500,1803
1158.955000,1814
1158.955500,1808
1158.956000,1793
1158.956500,1782
1158.957000,1794
1158.957500,1786
1158.958000,1788
1158.958500,1802
1158.959000,1806
1158.959500,1797
1158.960000,1810
1158.960500,1808
1158.961000,1802
1158.961500,1794
1158.962000,1809
1158.962500,1797
1158.963000,1799
1158.963500,1809
1158.964000,1811
1158.964500,1798
1158.965000,1810
1158.965500,1813
1158.966000,1801
1158.966500,1797
1158.967000,1810
1158.967500,1818
1158.968000,1797
1158.968500,1809
1158.969000,1814
1158.969500,1799
1158.970000,1797
1158.970500,1813
1158.971000,1802
1158.971500,1796
1158.972000,1809
1158.972500,1814
1158.973000,1795
1158.973500,1812
1158.974000,1820
1158.974500,1809
1158.975000,1801
1158.975500,1817
1158.976000,1806
1158.976500,1799
1158.977000,1809
1158.977500,1812
1158.978000,1791
1158.978500,1800
1158.979000,1804
1158.979500,1793
1158.980000,1791
1158.980500,1809
1158.981000,1799
1158.981500,1794
1158.982000,1811
1158.982500,1817
1158.983000,1798
1158.983500,1811
1158.984000,1810
1158.984500,1796
1158.985000,1789
1158.985500,1804
1158.986000,1802
1158.986500,1799
1158.987000,1813
1158.987500,1823
1158.988000,1799
1158.988500,1812
1158.989000,1813
1158.989500,1800
1158.990000,1793
1158.990500,1812
1158.991000,1803
1158.991500,1799
1158.992000,1810
1158.992500,1816
1158.993000,1796
1158.993500,1809
1158.994000,1813
1158.994500,1802
1158.995000,1799
1158.995500,1814
1158.996000,1802
1158.996500,1797
1158.997000,1809
1158.997500,1816
1158.998000,1797
1158.998500,1809
1158.999000,1811
1158.999500,1801
1159.000000,1800
1159.000500,1815
1159.001000,1805
1159.001500,1796
1159.002000,1810
1159.002500,1815
1159.003000,1799
1159.003500,1810
1159.004000,1812
1159.004500,1799
1159.005000,1793
1159.005500,1810
1159.006000,1806
1159.006500,1801
1159.007000,1815
1159.007500,1823
1159.008000,1805
1159.008500,1815
1159.009000,1815
1159.009500,1802
1159.010000,1795
1159.010500,1810
1159.011000,1800
1159.011500,1790
1159.012000,1801
1159.012500,1813
1159.013000,1795
1159.013500,1802
1159.014000,1812
1159.014500,1804
1159.015000,1801
1159.015500,1815
1159.016000,1805
1159.016500,1799
1159.017000,1808
1159.017500,1818
1159.018000,1795
1159.018500,1804
1159.019000,1806
1159.019500,1796
1159.020000,1797
1159.020500,1818
1159.021000,1812
1159.021500,1807
1159.022000,1814
1159.022500,1823
1159.023000,1806
1159.023500,1812
1159.024000,1808
1159.024500,1795
1159.025000,1787
1159.025500,1802
1159.026000,1796
1159.026500,1791
1159.027000,1802
1159.027500,1814
1159.028000,1803
1159.028500,1819
1159.029000,1822
1159.029500,1810
1159.030000,1802
1159.030500,1816
1159.031000,1808
1159.031500,1800
1159.032000,1811
1159.032500,1812
1159.033000,1794
1159.033500,1798
1159.034000,1793
1159.034500,1784
1159.035000,1785
1159.035500,1804
1159.036000,1798
1159.036500,1791
1159.037000,1804
1159.037500,1814
1159.038000,1800
1159.038500,1809
1159.039000,1814
1159.039500,1800
1159.040000,1793
1159.040500,1810
1159.041000,1802
1159.041500,1797
1159.042000,1808
1159.042500,1812
1159.043000,1800
1159.043500,1806
1159.044000,1809
1159.044500,1796
1159.045000,1794
1159.045500,1810
1159.046000,1800
1159.046500,1797
1159.047000,1809
1159.047500,1824
1159.048000,1801
1159.048500,1809
1159.049000,1814
1159.049500,1801
1159.050000,1795
1159.050500,1813
1159.051000,1803
1159.051500,1800
1159.052000,1817
1159.052500,1826
1159.053000,1806
1159.053500,1815
1159.054000,1816
1159.054500,1801
1159.055000,1795
1159.055500,1809
1159.056000,1796
1159.056500,1787
1159.057000,1796
1159.057500,1803
1159.058000,1793
1159.058500,1806
1159.059000,1815
1159.059500,1806
1159.060000,1805
1159.060500,1820
1159.061000,1807
1159.061500,1797
1159.062000,1810
1159.062500,1816
1159.063000,1799
1159.063500,1809
1159.064000,1815
1159.064500,1800
1159.065000,1794
1159.065500,1812
1159.066000,1803
1159.066500,1798
1159.067000,1810
1159.067500,1818
1159.068000,1799
1159.068500,1808
1159.069000,1814
1159.069500,1800
1159.070000,1795
1159.070500,1813
1159.071000,1806
1159.071500,1800
1159.072000,1815
1159.072500,1819
1159.073000,1801
1159.073500,1814
1159.074000,1815
1159.074500,1801
1159.075000,1794
1159.075500,1809
1159.076000,1798
1159.076500,1786
1159.077000,1801
1159.077500,1812
1159.078000,1791
1159.078500,1804
1159.079000,1808
1159.079500,1797
1159.080000,1793
1159.080500,1810
1159.081000,1803
1159.081500,1800
1159.082000,1811
1159.082500,1821
1159.083000,1799
1159.083500,1810
1159.084000,1813
1159.084500,1801
1159.085000,1793
1159.085500,1811
1159.086000,1804
1159.086500,1797
1159.087000,1810
1159.087500,1818
1159.088000,1798
1159.088500,1812
1159.089000,1814
1159.089500,1801
1159.090000,1794
1159.090500,1811
1159.091000,1804
1159.091500,1802
1159.092000,1816
1159.092500,1823
1159.093000,1805
1159.093500,1815
1159.094000,1816
1159.094500,1805
1159.095000,1798
1159.095500,1814
1159.096000,1801
1159.096500,1792
1159.097000,1804
1159.097500,1808
1159.098000,1793
1159.098500,1798
1159.099000,1804
1159.099500,1785
1159.100000,1786
1159.100500,1805
1159.101000,1802
1159.101500,1797
1159.102000,1810
1159.102500,1819
1159.103000,1801
1159.103500,1811
1159.104000,1813
1159.104500,1797
1159.105000,1794
1159.105500,1809
1159.106000,1806
1159.106500,1804
1159.107000,1820
1159.107500,1826
1159.108000,1809
1159.108500,1818
1159.109000,1820
1159.109500,1805
1159.110000,1798
1159.110500,1810
1159.111000,1798
1159.111500,1787
1159.112000,1795
1159.112500,1796
1159.113000,1786
1159.113500,1795
1159.114000,1806
1159.114500,1797
1159.115000,1794
1159.115500,1809
1159.116000,1804
1159.116500,1796
1159.117000,1807
1159.117500,1817
1159.118000,1804
1159.118500,1814
1159.119000,1813
1159.119500,1802
1159.120000,1797
1159.120500,1813
1159.121000,1803
1159.121500,1797
1159.122000,1810
1159.122500,1814
1159.123000,1799
1159.123500,1795
1159.124000,1809
1159.124500,1804
1159.125000,1797
1159.125500,1809
1159.126000,1813
1159.126500,1797
1159.127000,1807
1159.127500,1810
1159.128000,1801
1159.128500,1793
1159.129000,1808
1159.129500,1803
1159.130000,1805
1159.130500,1821
1159.131000,1830
1159.131500,1810
1159.132000,1817
1159.132500,1824
1159.133000,1808
1159.133500,1801
1159.134000,1813
1159.134500,1802
1159.135000,1794
1159.135500,1800
1159.136000,1804
1159.136500,1785
1159.137000,1796
1159.137500,1803
1159.138000,1793
1159.138500,1791
1159.139000,1803
1159.139500,1799
1159.140000,1794
1159.140500,1812
1159.141000,1820
1159.141500,1806
1159.142000,1820
1159.142500,1819
1159.143000,1810
1159.143500,1801
1159.144000,1813
1159.144500,1801
1159.145000,1794
1159.145500,1803
1159.146000,1805
1159.146500,1793
1159.147000,1787
1159.147500,1812
1159.148000,1799
1159.148500,1796
1159.149000,1808
1159.149500,1815
1159.150000,1796
1159.150500,1809
1159.151000,1813
1159.151500,1799
1159.152000,1795
1159.152500,1811
1159.153000,1803
1159.153500,1798
1159.154000,1811
1159.154500,1814
1159.155000,1799
1159.155500,1807
1159.156000,1811
1159.156500,1799
1159.157000,1792
1159.157500,1807
1159.158000,1802
1159.158500,1798
1159.159000,1811
1159.159500,1814
1159.160000,1797
1159.160500,1806
1159.161000,1811
1159.161500,1800
1159.162000,1795
1159.162500,1813
1159.163000,1809
1159.163500,1803
1159.164000,1809
1159.164500,1812
1159.165000,1798
1159.165500,1798
1159.166000,1810
1159.166500,1799
1159.167000,1795
1159.167500,1814
1159.168000,1806
1159.168500,1799
1159.169000,1809
1159.169500,1814
1159.170000,1802
1159.170500,1807
1159.171000,1818
1159.171500,1805
1159.172000,1799
1159.172500,1816
1159.173000,1805
1159.173500,1803
1159.174000,1808
1159.174500,1810
1159.175000,1792
1159.175500,1808
1159.176000,1804
1159.176500,1796
1159.177000,1793
1159.177500,1809
1159.178000,1804
1159.178500,1798
1159.179000,1803
1159.179500,1815
1159.180000,1807
1159.180500,1833
1159.181000,1826
1159.181500,1815
1159.182000,1807
1159.182500,1822
1159.183000,1807
1159.183500,1800
1159.184000,1807
1159.184500,1806
1159.185000,1788
1159.185500,1796
1159.186000,1796
1159.186500,1792
1159.187000,1789
1159.187500,1811
1159.188000,1791
1159.188500,1796
1159.189000,1808
1159.189500,1816
1159.190000,1802
1159.190500,1797
1159.191000,1817
1159.191500,1807
1159.192000,1801
1159.192500,1817
1159.193000,1820
1159.193500,1799
1159.194000,1813
1159.194500,1820
1159.195000,1806
1159.195500,1797
1159.196000,1812
1159.196500,1802
1159.197000,1797
1159.197500,1814
1159.198000,1823
1159.198500,1799
1159.199000,1808
1159.199500,1806
1159.200000,1792
1159.200500,1785
1159.201000,1802
1159.201500,1789
1159.202000,1784
1159.202500,1797
1159.203000,1805
1159.203500,1790
1159.204000,1800
1159.204500,1810
1159.205000,1795
1159.205500,1800
1159.206000,1821
1159.206500,1815
1159.207000,1808
1159.207500,1821
1159.208000,1824
1159.208500,1806
1159.209000,1812
1159.209500,1811
1159.210000,1796
1159.210500,1788
1159.211000,1805
1159.211500,1803
1159.212000,1798
1159.212500,1814
1159.213000,1816
1159.213500,1801
1159.214000,1799
1159.214500,1812
1159.215000,1799
1159.215500,1795
1159.216000,1812
1159.216500,1807
1159.217000,1795
1159.217500,1810
1159.218000,1814
1159.218500,1801
1159.219000,1818
1159.219500,1812
1159.220000,1802
1159.220500,1795
1159.221000,1810
1159.221500,1803
1159.222000,1796
1159.222500,1809
1159.223000,1815
1159.223500,1797
1159.224000,1815
1159.224500,1811
1159.225000,1802
1159.225500,1795
1159.226000,1812
1159.226500,1801
1159.227000,1796
1159.227500,1812
1159.228000,1815
1159.228500,1800
1159.229000,1823
1159.229500,1810
1159.230000,1799
1159.230500,1796
1159.231000,1810
1159.231500,1797
1159.232000,1796
1159.232500,1811
1159.233000,1816
1159.233500,1803
1159.234000,1794
1159.234500,1811
1159.235000,1800
1159.235500,1799
1159.236000,1811
1159.236500,1818
1159.237000,1795
1159.237500,1804
1159.238000,1812
1159.238500,1798
1159.239000,1795
1159.239500,1810
1159.240000,1800
1159.240500,1793
1159.241000,1810
1159.241500,1814
1159.242000,1796
1159.242500,1809
1159.243000,1816
1159.243500,1803
1159.244000,1791
1159.244500,1810
1159.245000,1802
1159.245500,1798
1159.246000,1810
1159.246500,1818
1159.247000,1799
1159.247500,1813
1159.248000,1816
1159.248500,1802
1159.249000,1798
1159.249500,1809
1159.250000,1804
1159.250500,1797
1159.251000,1806
1159.251500,1815
1159.252000,1796
1159.252500,1812
1159.253000,1817
1159.253500,1805
1159.254000,1798
1159.254500,1816
1159.255000,1804
1159.255500,1800
1159.256000,1812
1159.256500,1796
1159.257000,1799
1159.257500,1804
1159.258000,1814
1159.258500,1798
1159.259000,1792
1159.259500,1811
1159.260000,1802
1159.260500,1800
1159.261000,1818
1159.261500,1822
1159.262000,1802
1159.262500,1815
1159.263000,1813
1159.263500,1796
1159.264000,1785
1159.264500,1801
1159.265000,1794
1159.265500,1789
1159.266000,1800
1159.266500,1802
1159.267000,1780
1159.267500,1800
1159.268000,1809
1159.268500,1796
1159.269000,1793
1159.269500,1811
1159.270000,1802
1159.270500,1799
1159.271000,1811
1159.271500,1822
1159.272000,1802
1159.272500,1816
1159.273000,1821
1159.273500,1809
1159.274000,1800
1159.274500,1814
1159.275000,1802
1159.275500,1797
1159.276000,1808
1159.276500,1788
1159.277000,1786
1159.277500,1800
1159.278000,1808
1159.278500,1800
1159.279000,1795
1159.279500,1812
1159.280000,1801
1159.280500,1796
1159.281000,1809
1159.281500,1814
1159.282000,1796
1159.282500,1808
1159.283000,1812
1159.283500,1800
1159.284000,1794
1159.284500,1810
1159.285000,1802
1159.285500,1796
1159.286000,1811
1159.286500,1815
1159.287000,1799
1159.287500,1806
1159.288000,1813
1159.288500,1802
1159.289000,1794
1159.289500,1810
1159.290000,1802
1159.290500,1795
1159.291000,1809
1159.291500,1813
1159.292000,1796
1159.292500,1807
1159.293000,1814
1159.293500,1803
1159.294000,1792
1159.294500,1808
1159.295000,1801
1159.295500,1798
1159.296000,1811
1159.296500,1816
1159.297000,1799
1159.297500,1809
1159.298000,1816
1159.298500,1799
1159.299000,1790
1159.299500,1809
1159.300000,1800
1159.300500,1798
1159.301000,1813
1159.301500,1816
1159.302000,1804
1159.302500,1810
1159.303000,1819
1159.303500,1806
1159.304000,1797
1159.304500,1812
1159.305000,1804
1159.305500,1797
1159.306000,1811
1159.306500,1817
1159.307000,1800
1159.307500,1807
1159.308000,1818
1159.308500,1805
1159.309000,1795
1159.309500,1810
1159.310000,1803
1159.310500,1796
1159.311000,1809
1159.311500,1814
1159.312000,1797
1159.312500,1807
1159.313000,1815
1159.313500,1800
1159.314000,1798
1159.314500,1812
1159.315000,1802
1159.315500,1795
1159.316000,1806
1159.316500,1812
1159.317000,1795
1159.317500,1812
1159.318000,1816
1159.318500,1806
1159.319000,1803
1159.319500,1815
1159.320000,1809
1159.320500,1802
1159.321000,1812
1159.321500,1818
1159.322000,1795
1159.322500,1802
1159.323000,1808
1159.323500,1795
1159.324000,1792
1159.324500,1811
1159.325000,1809
1159.325500,1800
1159.326000,1812
1159.326500,1813
1159.327000,1795
1159.327500,1815
1159.328000,1801
1159.328500,1791
1159.329000,1787
1159.329500,1803
1159.330000,1794
1159.330500,1790
1159.331000,1803
1159.331500,1809
1159.332000,1798
1159.332500,1800
1159.333000,1815
1159.333500,1810
1159.334000,1806
1159.334500,1825
1159.335000,1827
1159.335500,1806
1159.336000,1816
1159.336500,1819
1159.337000,1806
1159.337500,1795
1159.338000,1808
1159.338500,1793
1159.339000,1781
1159.339500,1787
1159.340000,1793
1159.340500,1789
1159.341000,1808
1159.341500,1811
1159.342000,1798
1159.342500,1796
1159.343000,1813
1159.343500,1803
1159.344000,1796
1159.344500,1810
1159.345000,1815
1159.345500,1803
1159.346000,1813
1159.346500,1818
1159.347000,1807
1159.347500,1806
1159.348000,1820
1159.348500,1808
1159.349000,1801
1159.349500,1810
1159.350000,1814
1159.350500,1796
1159.351000,1803
1159.351500,1810
1159.352000,1797
1159.352500,1793
1159.353000,1812
1159.353500,1804
1159.354000,1795
1159.354500,1807
1159.355000,1812
1159.355500,1794
1159.356000,1801
1159.356500,1812
1159.357000,1798
1159.357500,1799
1159.358000,1810
1159.358500,1803
1159.359000,1796
1159.359500,1811
1159.360000,1815
1159.360500,1798
1159.361000,1810
1159.361500,1811
1159.362000,1797
1159.362500,1795
1159.363000,1809
1159.363500,1800
1159.364000,1791
1159.364500,1807
1159.365000,1815
1159.365500,1794
1159.366000,1808
1159.366500,1811
1159.367000,1800
1159.367500,1793
1159.368000,1813
1159.368500,1802
1159.369000,1797
1159.369500,1813
1159.370000,1820
1159.370500,1800
1159.371000,1812
1159.371500,1816
1159.372000,1802
1159.372500,1793
1159.373000,1815
1159.373500,1804
1159.374000,1797
1159.374500,1810
1159.375000,1813
1159.375500,1796
1159.376000,1806
1159.376500,1811
1159.377000,1798
1159.377500,1802
1159.378000,1817
1159.378500,1810
1159.379000,1804
1159.379500,1816
1159.380000,1821
1159.380500,1801
1159.381000,1814
1159.381500,1816
1159.382000,1798
1159.382500,1796
1159.383000,1806
1159.383500,1797
1159.384000,1792
1159.384500,1803
1159.385000,1808
1159.385500,1791
1159.386000,1800
1159.386500,1803
1159.387000,1793
1159.387500,1795
1159.388000,1812
1159.388500,1804
1159.389000,1795
1159.389500,1812
1159.390000,1817
1159.390500,1797
1159.391000,1811
1159.391500,1815
1159.392000,1800
1159.392500,1796
1159.393000,1814
1159.393500,1804
1159.394000,1795
1159.394500,1809
1159.395000,1811
1159.395500,1800
1159.396000,1807
1159.396500,1810
1159.397000,1798
1159.397500,1794
1159.398000,1811
1159.398500,1799
1159.399000,1794
1159.399500,1812
1159.400000,1821
1159.400500,1809
1159.401000,1813
1159.401500,1816
1159.402000,1805
1159.402500,1798
1159.403000,1815
1159.403500,1804
1159.404000,1794
1159.404500,1804
1159.405000,1811
1159.405500,1795
1159.406000,1807
1159.406500,1809
1159.407000,1795
1159.407500,1797
1159.408000,1812
1159.408500,1806
1159.409000,1797
1159.409500,1807
1159.410000,1813
1159.410500,1795
1159.411000,1806
1159.411500,1811
1159.412000,1799
1159.412500,1794
1159.413000,1809
1159.413500,1803
1159.414000,1804
1159.414500,1815
1159.415000,1822
1159.415500,1806
1159.416000,1816
1159.416500,1824
1159.417000,1809
1159.417500,1800
1159.418000,1812
1159.418500,1804
1159.419000,1790
1159.419500,1799
1159.420000,1798
1159.420500,1787
1159.421000,1796
1159.421500,1807
1159.422000,1796
1159.422500,1796
1159.423000,1816
1159.423500,1806
1159.424000,1795
1159.424500,1808
1159.425000,1812
1159.425500,1795
1159.426000,1802
1159.426500,1811
1159.427000,1798
1159.427500,1802
1159.428000,1817
1159.428500,1812
1159.429000,1801
1159.429500,1814
1159.430000,1819
1159.430500,1805
1159.431000,1825
1159.431500,1816
1159.432000,1806
1159.432500,1801
1159.433000,1814
1159.433500,1797
1159.434000,1790
1159.434500,1797
1159.435000,1802
1159.435500,1792
1159.436000,1788
1159.436500,1806
1159.437000,1797
1159.437500,1796
1159.438000,1814
1159.438500,1818
1159.439000,1800
1159.439500,1808
1159.440000,1815
1159.440500,1801
1159.441000,1799
1159.441500,1818
1159.442000,1812
1159.442500,1803
1159.443000,1823
1159.443500,1829
1159.444000,1805
1159.444500,1817
1159.445000,1817
1159.445500,1798
1159.446000,1790
1159.446500,1805
1159.447000,1796
1159.447500,1790
1159.448000,1801
1159.448500,1807
1159.449000,1787
1159.449500,1796
1159.450000,1806
1159.450500,1796
1159.451000,1792
1159.451500,1809
1159.452000,1802
1159.452500,1798
1159.453000,1810
1159.453500,1815
1159.454000,1801
1159.454500,1808
1159.455000,1812
1159.455500,1799
1159.456000,1794
1159.456500,1811
1159.457000,1801
1159.457500,1798
1159.458000,1810
1159.458500,1813
1159.459000,1796
1159.459500,1805
1159.460000,1812
1159.460500,1798
1159.461000,1794
1159.461500,1811
1159.462000,1803
1159.462500,1800
1159.463000,1811
1159.463500,1815
1159.464000,1798
1159.464500,1811
1159.465000,1814
1159.465500,1798
1159.466000,1794
1159.466500,1810
1159.467000,1802
1159.467500,1801
1159.468000,1813
1159.468500,1818
1159.469000,1799
1159.469500,1809
1159.470000,1815
1159.470500,1803
1159.471000,1798
1159.471500,1812
1159.472000,1803
1159.472500,1797
1159.473000,1810
1159.473500,1816
1159.474000,1799
1159.474500,1801
1159.475000,1815
1159.475500,1801
1159.476000,1796
1159.476500,1808
1159.477000,1803
1159.477500,1796
1159.478000,1807
