# Subject: 
# Trial: 
# Notes: 
# Muscles: Ch1
# fs=2000 Hz, nch=1, vref=3.3 V
t_s,ch1_code
7.495000,3667
7.495500,0
7.496000,0
7.496500,0
7.497000,0
7.497500,0
7.498000,0
7.498500,0
7.499000,0
7.499500,0
7.500000,0
7.500500,0
7.501000,0
7.501500,0
7.502000,0
7.502500,0
7.503000,0
7.503500,0
7.504000,0
7.504500,0
7.505000,835
7.505500,3666
7.506000,3669
7.506500,3662
7.507000,3663
7.507500,3661
7.508000,3663
7.508500,3667
7.509000,3666
7.509500,3665
7.510000,3666
7.510500,3666
7.511000,3669
7.511500,3665
7.512000,3664
7.512500,3668
7.513000,3668
7.513500,3667
7.514000,3666
7.514500,3665
7.515000,3668
7.515500,0
7.516000,0
7.516500,0
7.517000,0
7.517500,0
7.518000,0
7.518500,0
7.519000,0
7.519500,0
7.520000,0
7.520500,0
7.521000,0
7.521500,0
7.522000,0
7.522500,0
7.523000,0
7.523500,0
7.524000,0
7.524500,0
7.525000,958
7.525500,3667
7.526000,3669
7.526500,3666
7.527000,3664
7.527500,3660
7.528000,3664
7.528500,3661
7.529000,3664
7.529500,3664
7.530000,3672
7.530500,3666
7.531000,3667
7.531500,3667
7.532000,3666
7.532500,3663
7.533000,3664
7.533500,3665
7.534000,3664
7.534500,3665
7.535000,3672
7.535500,0
7.536000,0
7.536500,0
7.537000,0
7.537500,0
7.538000,0
7.538500,0
7.539000,0
7.539500,0
7.540000,0
7.540500,0
7.541000,0
7.541500,0
7.542000,0
7.542500,0
7.543000,0
7.543500,0
7.544000,0
7.544500,0
7.545000,0
7.545500,3674
7.546000,3672
7.546500,3663
7.547000,3661
7.547500,3662
7.548000,3664
7.548500,3665
7.549000,3666
7.549500,3666
7.550000,3672
7.550500,3665
7.551000,3665
7.551500,3665
7.552000,3664
7.552500,3667
7.553000,3665
7.553500,3668
7.554000,3667
7.554500,3667
7.555000,3665
7.555500,0
7.556000,0
7.556500,0
7.557000,0
7.557500,0
7.558000,0
7.558500,0
7.559000,0
7.559500,0
7.560000,0
7.560500,0
7.561000,0
7.561500,0
7.562000,0
7.562500,0
7.563000,0
7.563500,0
7.564000,0
7.564500,0
7.565000,638
7.565500,3667
7.566000,3668
7.566500,3662
7.567000,3660
7.567500,3663
7.568000,3663
7.568500,3661
7.569000,3663
7.569500,3665
7.570000,3663
7.570500,3673
7.571000,3671
7.571500,3667
7.572000,3668
7.572500,3666
7.573000,3663
7.573500,3664
7.574000,3666
7.574500,3662
7.575000,3664
7.575500,0
7.576000,0
7.576500,0
7.577000,0
7.577500,0
7.578000,0
7.578500,0
7.579000,0
7.579500,0
7.580000,0
7.580500,0
7.581000,0
7.581500,0
7.582000,0
7.582500,0
7.583000,0
7.583500,0
7.584000,0
7.584500,0
7.585000,5
7.585500,3671
7.586000,3673
7.586500,3666
7.587000,3660
7.587500,3659
7.588000,3663
7.588500,3663
7.589000,3661
7.589500,3664
7.590000,3665
7.590500,3667
7.591000,3666
7.591500,3665
7.592000,3667
7.592500,3666
7.593000,3664
7.593500,3663
7.594000,3664
7.594500,3666
7.595000,3667
7.595500,0
7.596000,0
7.596500,0
7.597000,0
7.597500,0
7.598000,0
7.598500,0
7.599000,0
7.599500,0
7.600000,0
7.600500,0
7.601000,0
7.601500,0
7.602000,0
7.602500,0
7.603000,0
7.603500,0
7.604000,0
7.604500,0
7.605000,0
7.605500,3670
7.606000,3667
7.606500,3663
7.607000,3659
7.607500,3663
7.608000,3664
7.608500,3662
7.609000,3664
7.609500,3666
7.610000,3665
7.610500,3667
7.611000,3666
7.611500,3662
7.612000,3664
7.612500,3666
7.613000,3665
7.613500,3666
7.614000,3666
7.614500,3665
7.615000,3666
7.615500,0
7.616000,0
7.616500,0
7.617000,0
7.617500,0
7.618000,0
7.618500,0
7.619000,0
7.619500,0
7.620000,0
7.620500,0
7.621000,0
7.621500,0
7.622000,0
7.622500,0
7.623000,0
7.623500,0
7.624000,0
7.624500,0
7.625000,0
7.625500,3665
7.626000,3667
7.626500,3665
7.627000,3662
7.627500,3665
7.628000,3665
7.628500,3662
7.629000,3665
7.629500,3666
7.630000,3667
7.630500,3672
7.631000,3672
7.631500,3665
7.632000,3667
7.632500,3665
7.633000,3664
7.633500,3666
7.634000,3665
7.634500,3666
7.635000,3662
7.635500,0
7.636000,0
7.636500,0
7.637000,0
7.637500,0
7.638000,0
7.638500,0
7.639000,0
7.639500,0
7.640000,0
7.640500,0
7.641000,0
7.641500,0
7.642000,0
7.642500,0
7.643000,0
7.643500,0
7.644000,0
7.644500,0
7.645000,0
7.645500,3670
7.646000,3669
7.646500,3665
7.647000,3661
7.647500,3659
7.648000,3662
7.648500,3662
7.649000,3665
7.649500,3664
7.650000,3663
7.650500,3666
7.651000,3670
7.651500,3666
7.652000,3666
7.652500,3665
7.653000,3666
7.653500,3665
7.654000,3667
7.654500,3665
7.655000,3673
7.655500,0
7.656000,0
7.656500,0
7.657000,0
7.657500,0
7.658000,0
7.658500,0
7.659000,0
7.659500,0
7.660000,0
7.660500,0
7.661000,0
7.661500,0
7.662000,0
7.662500,0
7.663000,0
7.663500,0
7.664000,0
7.664500,0
7.665000,0
7.665500,3674
7.666000,3670
7.666500,3664
7.667000,3659
7.667500,3661
7.668000,3664
7.668500,3664
7.669000,3664
7.669500,3663
7.670000,3664
7.670500,3668
7.671000,3667
7.671500,3665
7.672000,3667
7.672500,3665
7.673000,3664
7.673500,3667
7.674000,3666
7.674500,3664
7.675000,3675
7.675500,0
7.676000,0
7.676500,0
7.677000,0
7.677500,0
7.678000,0
7.678500,0
7.679000,0
7.679500,0
7.680000,0
7.680500,0
7.681000,0
7.681500,0
7.682000,0
7.682500,0
7.683000,0
7.683500,0
7.684000,0
7.684500,0
7.685000,594
7.685500,3667
7.686000,3669
7.686500,3662
7.687000,3661
7.687500,3661
7.688000,3665
7.688500,3663
7.689000,3666
7.689500,3664
7.690000,3672
7.690500,3664
7.691000,3666
7.691500,3664
7.692000,3666
7.692500,3665
7.693000,3665
7.693500,3665
7.694000,3667
7.694500,3664
7.695000,3669
7.695500,0
7.696000,0
7.696500,0
7.697000,0
7.697500,0
7.698000,0
7.698500,0
7.699000,0
7.699500,0
7.700000,0
7.700500,0
7.701000,0
7.701500,0
7.702000,0
7.702500,0
7.703000,0
7.703500,0
7.704000,0
7.704500,0
7.705000,0
7.705500,3669
7.706000,3667
7.706500,3667
7.707000,3663
7.707500,3662
7.708000,3662
7.708500,3663
7.709000,3663
7.709500,3665
7.710000,3661
7.710500,3667
7.711000,3669
7.711500,3666
7.712000,3664
7.712500,3665
7.713000,3667
7.713500,3663
7.714000,3666
7.714500,3664
7.715000,3674
7.715500,0
7.716000,0
7.716500,0
7.717000,0
7.717500,0
7.718000,0
7.718500,0
7.719000,0
7.719500,0
7.720000,0
7.720500,0
7.721000,0
7.721500,0
7.722000,0
7.722500,0
7.723000,0
7.723500,0
7.724000,0
7.724500,0
7.725000,78
7.725500,3670
7.726000,3668
7.726500,3665
7.727000,3663
7.727500,3661
7.728000,3663
7.728500,3664
7.729000,3663
7.729500,3665
7.730000,3666
7.730500,3667
7.731000,3669
7.731500,3666
7.732000,3664
7.732500,3663
7.733000,3667
7.733500,3667
7.734000,3667
7.734500,3664
7.735000,3675
7.735500,0
7.736000,0
7.736500,0
7.737000,0
7.737500,0
7.738000,0
7.738500,0
7.739000,0
7.739500,0
7.740000,0
7.740500,0
7.741000,0
7.741500,0
7.742000,0
7.742500,0
7.743000,0
7.743500,0
7.744000,0
7.744500,0
7.745000,129
7.745500,3669
7.746000,3666
7.746500,3661
7.747000,3662
7.747500,3662
7.748000,3662
7.748500,3665
7.749000,3667
7.749500,3667
7.750000,3669
7.750500,3668
7.751000,3666
7.751500,3662
7.752000,3665
7.752500,3667
7.753000,3667
7.753500,3668
7.754000,3667
7.754500,3666
7.755000,3672
7.755500,0
7.756000,0
7.756500,0
7.757000,0
7.757500,0
7.758000,0
7.758500,0
7.759000,0
7.759500,0
7.760000,0
7.760500,0
7.761000,0
7.761500,0
7.762000,0
7.762500,0
7.763000,0
7.763500,0
7.764000,0
7.764500,0
7.765000,0
7.765500,3664
7.766000,3665
7.766500,3663
7.767000,3662
7.767500,3664
7.768000,3663
7.768500,3664
7.769000,3665
7.769500,3664
7.770000,3672
7.770500,3668
7.771000,3668
7.771500,3665
7.772000,3666
7.772500,3666
7.773000,3666
7.773500,3665
7.774000,3665
7.774500,3667
7.775000,3678
7.775500,0
7.776000,0
7.776500,0
7.777000,0
7.777500,0
7.778000,0
7.778500,0
7.779000,0
7.779500,0
7.780000,0
7.780500,0
7.781000,0
7.781500,0
7.782000,0
7.782500,0
7.783000,0
7.783500,0
7.784000,0
7.784500,0
7.785000,0
7.785500,3667
7.786000,3670
7.786500,3666
7.787000,3664
7.787500,3664
7.788000,3665
7.788500,3661
7.789000,3663
7.789500,3663
7.790000,3672
7.790500,3667
7.791000,3668
7.791500,3666
7.792000,3666
7.792500,3664
7.793000,3667
7.793500,3664
7.794000,3667
7.794500,3667
7.795000,3665
7.795500,0
7.796000,0
7.796500,0
7.797000,0
7.797500,0
7.798000,0
7.798500,0
7.799000,0
7.799500,0
7.800000,0
7.800500,0
7.801000,0
7.801500,0
7.802000,0
7.802500,0
7.803000,0
7.803500,0
7.804000,0
7.804500,0
7.805000,0
7.805500,3671
7.806000,3671
7.806500,3664
7.807000,3661
7.807500,3661
7.808000,3662
7.808500,3665
7.809000,3663
7.809500,3666
7.810000,3673
7.810500,3669
7.811000,3667
7.811500,3664
7.812000,3664
7.812500,3666
7.813000,3665
7.813500,3665
7.814000,3668
7.814500,3667
7.815000,3675
7.815500,0
7.816000,0
7.816500,0
7.817000,0
7.817500,0
7.818000,0
7.818500,0
7.819000,0
7.819500,0
7.820000,0
7.820500,0
7.821000,0
7.821500,0
7.822000,0
7.822500,0
7.823000,0
7.823500,0
7.824000,0
7.824500,0
7.825000,0
7.825500,3672
7.826000,3670
7.826500,3662
7.827000,3662
7.827500,3661
7.828000,3662
7.828500,3663
7.829000,3662
7.829500,3665
7.830000,3665
7.830500,3663
7.831000,3667
7.831500,3665
7.832000,3665
7.832500,3666
7.833000,3667
7.833500,3664
7.834000,3667
7.834500,3664
7.835000,3671
7.835500,0
7.836000,0
7.836500,0
7.837000,0
7.837500,0
7.838000,0
7.838500,0
7.839000,0
7.839500,0
7.840000,0
7.840500,0
7.841000,0
7.841500,0
7.842000,0
7.842500,0
7.843000,0
7.843500,0
7.844000,0
7.844500,0
7.845000,389
7.845500,3667
7.846000,3669
7.846500,3664
7.847000,3665
7.847500,3663
7.848000,3661
7.848500,3663
7.849000,3665
7.849500,3662
7.850000,3664
7.850500,3666
7.851000,3669
7.851500,3667
7.852000,3665
7.852500,3664
7.853000,3664
7.853500,3665
7.854000,3663
7.854500,3665
7.855000,3667
7.855500,0
7.856000,0
7.856500,0
7.857000,0
7.857500,0
7.858000,0
7.858500,0
7.859000,0
7.859500,0
7.860000,0
7.860500,0
7.861000,0
7.861500,0
7.862000,0
7.862500,0
7.863000,0
7.863500,0
7.864000,0
7.864500,0
7.865000,411
7.865500,3671
7.866000,3669
7.866500,3662
7.867000,3664
7.867500,3662
7.868000,3661
7.868500,3664
7.869000,3663
7.869500,3664
7.870000,3664
7.870500,3665
7.871000,3667
7.871500,3666
7.872000,3665
7.872500,3665
7.873000,3665
7.873500,3667
7.874000,3667
7.874500,3665
7.875000,3671
7.875500,0
7.876000,0
7.876500,0
7.877000,0
7.877500,0
7.878000,0
7.878500,0
7.879000,0
7.879500,0
7.880000,0
7.880500,0
7.881000,0
7.881500,0
7.882000,0
7.882500,0
7.883000,0
7.883500,0
7.884000,0
7.884500,0
7.885000,252
7.885500,3669
7.886000,3666
7.886500,3662
7.887000,3663
7.887500,3664
7.888000,3662
7.888500,3664
7.889000,3665
7.889500,3664
7.890000,3666
7.890500,3670
7.891000,3673
7.891500,3665
7.892000,3664
7.892500,3668
7.893000,3664
7.893500,3667
7.894000,3666
7.894500,3664
7.895000,3666
7.895500,0
7.896000,0
7.896500,0
7.897000,0
7.897500,0
7.898000,0
7.898500,0
7.899000,0
7.899500,0
7.900000,0
7.900500,0
7.901000,0
7.901500,0
7.902000,0
7.902500,0
7.903000,0
7.903500,0
7.904000,0
7.904500,389
7.905000,1132
7.905500,3667
7.906000,3670
7.906500,3666
7.907000,3662
7.907500,3663
7.908000,3662
7.908500,3661
7.909000,3661
7.909500,3662
7.910000,3663
7.910500,3665
7.911000,3670
7.911500,3664
7.912000,3667
7.912500,3664
7.913000,3665
7.913500,3666
7.914000,3663
7.914500,3666
7.915000,3673
7.915500,0
7.916000,0
7.916500,0
7.917000,0
7.917500,0
7.918000,0
7.918500,0
7.919000,0
7.919500,0
7.920000,0
7.920500,0
7.921000,0
7.921500,0
7.922000,0
7.922500,0
7.923000,0
7.923500,0
7.924000,0
7.924500,0
7.925000,552
7.925500,3668
7.926000,3669
7.926500,3666
7.927000,3663
7.927500,3659
7.928000,3662
7.928500,3662
7.929000,3662
7.929500,3665
7.930000,3666
7.930500,3669
7.931000,3665
7.931500,3665
7.932000,3663
7.932500,3666
7.933000,3666
7.933500,3665
7.934000,3667
7.934500,3667
7.935000,3665
7.935500,0
7.936000,0
7.936500,0
7.937000,0
7.937500,0
7.938000,0
7.938500,0
7.939000,0
7.939500,0
7.940000,0
7.940500,0
7.941000,0
7.941500,0
7.942000,0
7.942500,0
7.943000,0
7.943500,0
7.944000,0
7.944500,0
7.945000,0
7.945500,3668
7.946000,3665
7.946500,3662
7.947000,3662
7.947500,3660
7.948000,3663
7.948500,3666
7.949000,3666
7.949500,3663
7.950000,3662
7.950500,3667
7.951000,3667
7.951500,3662
7.952000,3665
7.952500,3665
7.953000,3665
7.953500,3667
7.954000,3665
7.954500,3667
7.955000,3669
7.955500,0
7.956000,0
7.956500,0
7.957000,0
7.957500,0
7.958000,0
7.958500,0
7.959000,0
7.959500,0
7.960000,0
7.960500,0
7.961000,0
7.961500,0
7.962000,0
7.962500,0
7.963000,0
7.963500,0
7.964000,0
7.964500,0
7.965000,0
7.965500,3664
7.966000,3666
7.966500,3663
7.967000,3664
7.967500,3660
7.968000,3663
7.968500,3666
7.969000,3665
7.969500,3661
7.970000,3677
7.970500,3665
7.971000,3666
7.971500,3666
7.972000,3665
7.972500,3667
7.973000,3668
7.973500,3667
7.974000,3666
7.974500,3663
7.975000,3672
7.975500,0
7.976000,0
7.976500,0
7.977000,0
7.977500,0
7.978000,0
7.978500,0
7.979000,0
7.979500,0
7.980000,0
7.980500,0
7.981000,0
7.981500,0
7.982000,0
7.982500,0
7.983000,0
7.983500,0
7.984000,0
7.984500,0
7.985000,0
7.985500,3668
7.986000,3666
7.986500,3667
7.987000,3663
7.987500,3663
7.988000,3663
7.988500,3661
7.989000,3664
7.989500,3662
7.990000,3668
7.990500,3665
7.991000,3669
7.991500,3667
7.992000,3666
7.992500,3667
7.993000,3664
7.993500,3663
7.994000,3665
7.994500,3664
7.995000,3673
7.995500,0
7.996000,0
7.996500,0
7.997000,0
7.997500,0
7.998000,0
7.998500,0
7.999000,0
7.999500,0
8.000000,0
8.000500,0
8.001000,0
8.001500,0
8.002000,0
8.002500,0
8.003000,0
8.003500,0
8.004000,0
8.004500,0
8.005000,0
8.005500,3667
8.006000,3667
8.006500,3666
8.007000,3662
8.007500,3659
8.008000,3663
8.008500,3664
8.009000,3665
8.009500,3665
8.010000,3664
8.010500,3665
8.011000,3670
8.011500,3666
8.012000,3665
8.012500,3665
8.013000,3666
8.013500,3665
8.014000,3666
8.014500,3667
8.015000,3672
8.015500,0
8.016000,0
8.016500,0
8.017000,0
8.017500,0
8.018000,0
8.018500,0
8.019000,0
8.019500,0
8.020000,0
8.020500,0
8.021000,0
8.021500,0
8.022000,0
8.022500,0
8.023000,0
8.023500,0
8.024000,0
8.024500,0
8.025000,0
8.025500,3666
8.026000,3669
8.026500,3661
8.027000,3664
8.027500,3661
8.028000,3663
8.028500,3664
8.029000,3665
8.029500,3665
8.030000,3674
8.030500,3665
8.031000,3668
8.031500,3663
8.032000,3663
8.032500,3666
8.033000,3666
8.033500,3668
8.034000,3665
8.034500,3665
8.035000,3675
8.035500,0
8.036000,0
8.036500,0
8.037000,0
8.037500,0
8.038000,0
8.038500,0
8.039000,0
8.039500,0
8.040000,0
8.040500,0
8.041000,0
8.041500,0
8.042000,0
8.042500,0
8.043000,0
8.043500,0
8.044000,0
8.044500,0
8.045000,0
8.045500,3667
8.046000,3668
8.046500,3663
8.047000,3662
8.047500,3663
8.048000,3664
8.048500,3665
8.049000,3663
8.049500,3665
8.050000,3663
8.050500,3665
8.051000,3666
8.051500,3664
8.052000,3664
8.052500,3668
8.053000,3665
8.053500,3667
8.054000,3668
8.054500,3667
8.055000,3663
8.055500,0
8.056000,0
8.056500,0
8.057000,0
8.057500,0
8.058000,0
8.058500,0
8.059000,0
8.059500,0
8.060000,0
8.060500,0
8.061000,0
8.061500,0
8.062000,0
8.062500,0
8.063000,0
8.063500,0
8.064000,0
8.064500,0
8.065000,0
8.065500,3667
8.066000,3667
8.066500,3666
8.067000,3662
8.067500,3661
8.068000,3665
8.068500,3661
8.069000,3662
8.069500,3664
8.070000,3673
8.070500,3667
8.071000,3670
8.071500,3667
8.072000,3666
8.072500,3664
8.073000,3667
8.073500,3666
8.074000,3665
8.074500,3666
8.075000,3671
8.075500,0
8.076000,0
8.076500,0
8.077000,0
8.077500,0
8.078000,0
8.078500,0
8.079000,0
8.079500,0
8.080000,0
8.080500,0
8.081000,0
8.081500,0
8.082000,0
8.082500,0
8.083000,0
8.083500,0
8.084000,0
8.084500,0
8.085000,0
8.085500,3668
8.086000,3667
8.086500,3664
8.087000,3662
8.087500,3662
8.088000,3660
8.088500,3662
8.089000,3665
8.089500,3664
8.090000,3664
8.090500,3669
8.091000,3667
8.091500,3666
8.092000,3665
8.092500,3664
8.093000,3664
8.093500,3667
8.094000,3667
8.094500,3665
8.095000,3671
8.095500,0
8.096000,0
8.096500,0
8.097000,0
8.097500,0
8.098000,0
8.098500,0
8.099000,0
8.099500,0
8.100000,0
8.100500,0
8.101000,0
8.101500,0
8.102000,0
8.102500,0
8.103000,0
8.103500,0
8.104000,0
8.104500,0
8.105000,0
8.105500,3675
8.106000,3672
8.106500,3664
8.107000,3663
8.107500,3663
8.108000,3663
8.108500,3665
8.109000,3665
8.109500,3665
8.110000,3671
8.110500,3669
8.111000,3668
8.111500,3665
8.112000,3667
8.112500,3665
8.113000,3667
8.113500,3666
8.114000,3665
8.114500,3666
8.115000,3671
8.115500,0
8.116000,0
8.116500,0
8.117000,0
8.117500,0
8.118000,0
8.118500,0
8.119000,0
8.119500,0
8.120000,0
8.120500,0
8.121000,0
8.121500,0
8.122000,0
8.122500,0
8.123000,0
8.123500,0
8.124000,0
8.124500,0
8.125000,0
8.125500,3672
8.126000,3667
8.126500,3664
8.127000,3663
8.127500,3663
8.128000,3663
8.128500,3664
8.129000,3662
8.129500,3666
8.130000,3671
8.130500,3675
8.131000,3674
8.131500,3667
8.132000,3663
8.132500,3666
8.133000,3665
8.133500,3666
8.134000,3666
8.134500,3665
8.135000,3671
8.135500,0
8.136000,0
8.136500,0
8.137000,0
8.137500,0
8.138000,0
8.138500,0
8.139000,0
8.139500,0
8.140000,0
8.140500,0
8.141000,0
8.141500,0
8.142000,0
8.142500,0
8.143000,0
8.143500,0
8.144000,0
8.144500,0
8.145000,0
8.145500,3670
8.146000,3666
8.146500,3664
8.147000,3662
8.147500,3659
8.148000,3662
8.148500,3663
8.149000,3664
8.149500,3665
8.150000,3663
8.150500,3669
8.151000,3667
8.151500,3665
8.152000,3667
8.152500,3665
8.153000,3665
8.153500,3668
8.154000,3665
8.154500,3666
8.155000,3667
8.155500,0
8.156000,0
8.156500,0
8.157000,0
8.157500,0
8.158000,0
8.158500,0
8.159000,0
8.159500,0
8.160000,0
8.160500,0
8.161000,0
8.161500,0
8.162000,0
8.162500,0
8.163000,0
8.163500,0
8.164000,0
8.164500,0
8.165000,0
8.165500,3671
8.166000,3667
8.166500,3666
8.167000,3664
8.167500,3662
8.168000,3661
8.168500,3662
8.169000,3665
8.169500,3664
8.170000,3671
8.170500,3668
8.171000,3668
8.171500,3664
8.172000,3668
8.172500,3665
8.173000,3666
8.173500,3666
8.174000,3664
8.174500,3666
8.175000,3667
8.175500,0
8.176000,0
8.176500,0
8.177000,0
8.177500,0
8.178000,0
8.178500,0
8.179000,0
8.179500,0
8.180000,0
8.180500,0
8.181000,0
8.181500,0
8.182000,0
8.182500,0
8.183000,0
8.183500,0
8.184000,0
8.184500,0
