# Subject: S01
# Trial: rest
# Notes: 
# Muscles: Ch1
# fs=2000 Hz, nch=1, vref=3.3 V
t_s,ch1_code
128.790000,1777
128.790500,1762
128.791000,1761
128.791500,1773
128.792000,1764
128.792500,1756
128.793000,1773
128.793500,1761
128.794000,1759
128.794500,1767
128.795000,1777
128.795500,1759
128.796000,1758
128.796500,1773
128.797000,1765
128.797500,1759
128.798000,1774
128.798500,1779
128.799000,1764
128.799500,1769
128.800000,1777
128.800500,1765
128.801000,1758
128.801500,1772
128.802000,1767
128.802500,1759
128.803000,1774
128.803500,1779
128.804000,1763
128.804500,1768
128.805000,1777
128.805500,1767
128.806000,1761
128.806500,1775
128.807000,1773
128.807500,1764
128.808000,1776
128.808500,1780
128.809000,1765
128.809500,1764
128.810000,1775
128.810500,1757
128.811000,1758
128.811500,1774
128.812000,1782
128.812500,1760
128.813000,1773
128.813500,1772
128.814000,1755
128.814500,1747
128.815000,1767
128.815500,1757
128.816000,1753
128.816500,1769
128.817000,1775
128.817500,1757
128.818000,1759
128.818500,1777
128.819000,1763
128.819500,1759
128.820000,1774
128.820500,1761
128.821000,1760
128.821500,1772
128.822000,1777
128.822500,1768
128.823000,1756
128.823500,1777
128.824000,1766
128.824500,1759
128.825000,1775
128.825500,1778
128.826000,1763
128.826500,1769
128.827000,1779
128.827500,1764
128.828000,1759
128.828500,1775
128.829000,1765
128.829500,1763
128.830000,1775
128.830500,1780
128.831000,1762
128.831500,1763
128.832000,1777
128.832500,1762
128.833000,1758
128.833500,1774
128.834000,1760
128.834500,1758
128.835000,1770
128.835500,1775
128.836000,1760
128.836500,1755
128.837000,1777
128.837500,1765
128.838000,1759
128.838500,1775
128.839000,1780
128.839500,1757
128.840000,1773
128.840500,1775
128.841000,1761
128.841500,1757
128.842000,1775
128.842500,1767
128.843000,1757
128.843500,1773
128.844000,1781
128.844500,1762
128.845000,1773
128.845500,1779
128.846000,1764
128.846500,1759
128.847000,1777
128.847500,1764
128.848000,1759
128.848500,1774
128.849000,1777
128.849500,1758
128.850000,1767
128.850500,1777
128.851000,1765
128.851500,1759
128.852000,1775
128.852500,1755
128.853000,1757
128.853500,1769
128.854000,1777
128.854500,1760
128.855000,1753
128.855500,1772
128.856000,1762
128.856500,1756
128.857000,1775
128.857500,1778
128.858000,1761
128.858500,1772
128.859000,1777
128.859500,1766
128.860000,1753
128.860500,1777
128.861000,1768
128.861500,1761
128.862000,1773
128.862500,1777
128.863000,1763
128.863500,1782
128.864000,1775
128.864500,1765
128.865000,1759
128.865500,1774
128.866000,1781
128.866500,1757
128.867000,1774
128.867500,1778
128.868000,1761
128.868500,1757
128.869000,1775
128.869500,1767
128.870000,1758
128.870500,1776
128.871000,1779
128.871500,1761
128.872000,1767
128.872500,1775
128.873000,1761
128.873500,1759
128.874000,1773
128.874500,1763
128.875000,1759
128.875500,1773
128.876000,1780
128.876500,1761
128.877000,1758
128.877500,1777
128.878000,1761
128.878500,1756
128.879000,1769
128.879500,1772
128.880000,1752
128.880500,1770
128.881000,1774
128.881500,1758
128.882000,1755
128.882500,1774
128.883000,1765
128.883500,1759
128.884000,1775
128.884500,1782
128.885000,1766
128.885500,1775
128.886000,1780
128.886500,1764
128.887000,1761
128.887500,1775
128.888000,1765
128.888500,1760
128.889000,1773
128.889500,1777
128.890000,1762
128.890500,1757
128.891000,1775
128.891500,1763
128.892000,1757
128.892500,1773
128.893000,1779
128.893500,1761
128.894000,1772
128.894500,1776
128.895000,1761
128.895500,1755
128.896000,1773
128.896500,1765
128.897000,1758
128.897500,1774
128.898000,1777
128.898500,1760
128.899000,1761
128.899500,1775
128.900000,1763
128.900500,1755
128.901000,1777
128.901500,1757
128.902000,1757
128.902500,1772
128.903000,1777
128.903500,1762
128.904000,1756
128.904500,1776
128.905000,1763
128.905500,1760
128.906000,1775
128.906500,1779
128.907000,1762
128.907500,1769
128.908000,1777
128.908500,1761
128.909000,1757
128.909500,1776
128.910000,1766
128.910500,1763
128.911000,1777
128.911500,1781
128.912000,1763
128.912500,1763
128.913000,1780
128.913500,1763
128.914000,1756
128.914500,1769
128.915000,1759
128.915500,1755
128.916000,1769
128.916500,1777
128.917000,1759
128.917500,1753
128.918000,1772
128.918500,1763
128.919000,1757
128.919500,1774
128.920000,1781
128.920500,1762
128.921000,1769
128.921500,1777
128.922000,1761
128.922500,1756
128.923000,1776
128.923500,1766
128.924000,1759
128.924500,1775
128.925000,1780
128.925500,1761
128.926000,1776
128.926500,1776
128.927000,1763
128.927500,1758
128.928000,1773
128.928500,1773
128.929000,1754
128.929500,1772
128.930000,1775
128.930500,1763
128.931000,1756
128.931500,1777
128.932000,1765
128.932500,1758
128.933000,1775
128.933500,1781
128.934000,1763
128.934500,1773
128.935000,1783
128.935500,1767
128.936000,1758
128.936500,1775
128.937000,1764
128.937500,1759
128.938000,1774
128.938500,1783
128.939000,1767
128.939500,1759
128.940000,1780
128.940500,1765
128.941000,1762
128.941500,1775
128.942000,1781
128.942500,1755
128.943000,1769
128.943500,1771
128.944000,1755
128.944500,1753
128.945000,1771
128.945500,1762
128.946000,1757
128.946500,1772
128.947000,1778
128.947500,1760
128.948000,1775
128.948500,1781
128.949000,1765
128.949500,1759
128.950000,1777
128.950500,1770
128.951000,1761
128.951500,1773
128.952000,1779
128.952500,1760
128.953000,1769
128.953500,1777
128.954000,1765
128.954500,1757
128.955000,1773
128.955500,1779
128.956000,1760
128.956500,1768
128.957000,1775
128.957500,1762
128.958000,1757
128.958500,1777
128.959000,1766
128.959500,1761
128.960000,1775
128.960500,1779
128.961000,1762
128.961500,1783
128.962000,1777
128.962500,1763
128.963000,1758
128.963500,1775
128.964000,1779
128.964500,1755
128.965000,1774
128.965500,1780
128.966000,1765
128.966500,1756
128.967000,1775
128.967500,1761
128.968000,1758
128.968500,1774
128.969000,1780
128.969500,1760
128.970000,1769
128.970500,1775
128.971000,1765
128.971500,1756
128.972000,1772
128.972500,1766
128.973000,1757
128.973500,1771
128.974000,1776
128.974500,1758
128.975000,1773
128.975500,1773
128.976000,1764
128.976500,1759
128.977000,1771
128.977500,1780
128.978000,1765
128.978500,1770
128.979000,1783
128.979500,1769
128.980000,1760
128.980500,1777
128.981000,1767
128.981500,1763
128.982000,1775
128.982500,1780
128.983000,1762
128.983500,1779
128.984000,1775
128.984500,1763
128.985000,1755
128.985500,1772
128.986000,1779
128.986500,1757
128.987000,1770
128.987500,1777
128.988000,1764
128.988500,1757
128.989000,1773
128.989500,1768
128.990000,1757
128.990500,1773
128.991000,1778
128.991500,1762
128.992000,1789
128.992500,1776
128.993000,1762
128.993500,1759
128.994000,1773
128.994500,1783
128.995000,1754
128.995500,1773
128.996000,1777
128.996500,1761
128.997000,1756
128.997500,1775
128.998000,1767
128.998500,1758
128.999000,1773
128.999500,1778
129.000000,1757
129.000500,1763
129.001000,1783
129.001500,1766
129.002000,1763
129.002500,1779
129.003000,1757
129.003500,1762
129.004000,1775
129.004500,1777
129.005000,1759
129.005500,1749
129.006000,1770
129.006500,1760
129.007000,1758
129.007500,1772
129.008000,1779
129.008500,1759
129.009000,1775
129.009500,1773
129.010000,1762
129.010500,1754
129.011000,1775
129.011500,1765
129.012000,1758
129.012500,1771
129.013000,1776
129.013500,1759
129.014000,1787
129.014500,1778
129.015000,1769
129.015500,1759
129.016000,1777
129.016500,1780
129.017000,1760
129.017500,1775
129.018000,1777
129.018500,1763
129.019000,1757
129.019500,1775
129.020000,1768
129.020500,1760
129.021000,1773
129.021500,1782
129.022000,1760
129.022500,1773
129.023000,1777
129.023500,1764
129.024000,1757
129.024500,1773
129.025000,1771
129.025500,1758
129.026000,1772
129.026500,1778
129.027000,1761
129.027500,1760
129.028000,1775
129.028500,1765
129.029000,1757
129.029500,1775
129.030000,1783
129.030500,1760
129.031000,1770
129.031500,1777
129.032000,1762
129.032500,1757
129.033000,1775
129.033500,1765
129.034000,1759
129.034500,1771
129.035000,1779
129.035500,1759
129.036000,1784
129.036500,1777
129.037000,1764
129.037500,1758
129.038000,1774
129.038500,1779
129.039000,1758
129.039500,1773
129.040000,1782
129.040500,1764
129.041000,1760
129.041500,1777
129.042000,1767
129.042500,1761
129.043000,1775
129.043500,1781
129.044000,1757
129.044500,1769
129.045000,1777
129.045500,1760
129.046000,1757
129.046500,1774
129.047000,1763
129.047500,1757
129.048000,1773
129.048500,1777
129.049000,1762
129.049500,1765
129.050000,1778
129.050500,1761
129.051000,1758
129.051500,1774
129.052000,1764
129.052500,1757
129.053000,1770
129.053500,1775
129.054000,1758
129.054500,1763
129.055000,1775
129.055500,1761
129.056000,1757
129.056500,1773
129.057000,1776
129.057500,1758
129.058000,1772
129.058500,1777
129.059000,1761
129.059500,1758
129.060000,1773
129.060500,1763
129.061000,1761
129.061500,1772
129.062000,1780
129.062500,1761
129.063000,1786
129.063500,1771
129.064000,1760
129.064500,1754
129.065000,1781
129.065500,1777
129.066000,1757
129.066500,1772
129.067000,1777
129.067500,1762
129.068000,1759
129.068500,1779
129.069000,1767
129.069500,1761
129.070000,1773
129.070500,1780
129.071000,1759
129.071500,1773
129.072000,1776
129.072500,1763
129.073000,1757
129.073500,1777
129.074000,1769
129.074500,1757
129.075000,1770
129.075500,1780
129.076000,1761
129.076500,1780
129.077000,1776
129.077500,1763
129.078000,1758
129.078500,1772
129.079000,1777
129.079500,1756
129.080000,1775
129.080500,1778
129.081000,1765
129.081500,1757
129.082000,1775
129.082500,1766
129.083000,1759
129.083500,1773
129.084000,1778
129.084500,1761
129.085000,1780
129.085500,1777
129.086000,1764
129.086500,1757
129.087000,1775
129.087500,1757
129.088000,1757
129.088500,1771
129.089000,1779
129.089500,1760
129.090000,1754
129.090500,1776
129.091000,1766
129.091500,1757
129.092000,1771
129.092500,1776
129.093000,1758
129.093500,1760
129.094000,1774
129.094500,1762
129.095000,1753
129.095500,1774
129.096000,1759
129.096500,1759
129.097000,1772
129.097500,1781
129.098000,1761
129.098500,1755
129.099000,1777
129.099500,1765
129.100000,1758
129.100500,1774
129.101000,1780
129.101500,1761
129.102000,1767
129.102500,1775
129.103000,1761
129.103500,1759
129.104000,1776
129.104500,1757
129.105000,1755
129.105500,1771
129.106000,1776
129.106500,1761
129.107000,1756
129.107500,1776
129.108000,1766
129.108500,1759
129.109000,1773
129.109500,1779
129.110000,1762
129.110500,1766
129.111000,1779
129.111500,1763
129.112000,1757
129.112500,1775
129.113000,1780
129.113500,1758
129.114000,1773
129.114500,1779
129.115000,1763
129.115500,1754
129.116000,1773
129.116500,1765
129.117000,1759
129.117500,1771
129.118000,1776
129.118500,1761
129.119000,1773
129.119500,1774
129.120000,1764
129.120500,1759
129.121000,1775
129.121500,1753
129.122000,1759
129.122500,1769
129.123000,1779
129.123500,1762
129.124000,1759
129.124500,1774
129.125000,1760
129.125500,1750
129.126000,1771
129.126500,1776
129.127000,1756
129.127500,1774
129.128000,1775
129.128500,1761
129.129000,1757
129.129500,1775
129.130000,1771
129.130500,1757
129.131000,1773
129.131500,1777
129.132000,1762
129.132500,1755
129.133000,1776
129.133500,1765
129.134000,1758
129.134500,1775
129.135000,1780
129.135500,1759
129.136000,1770
129.136500,1778
129.137000,1763
129.137500,1756
129.138000,1774
129.138500,1759
129.139000,1757
129.139500,1773
129.140000,1779
129.140500,1761
129.141000,1755
129.141500,1775
129.142000,1765
129.142500,1758
129.143000,1776
129.143500,1779
129.144000,1763
129.144500,1769
129.145000,1778
129.145500,1763
129.146000,1759
129.146500,1772
129.147000,1764
129.147500,1759
129.148000,1773
129.148500,1776
129.149000,1761
129.149500,1758
129.150000,1773
129.150500,1764
129.151000,1761
129.151500,1778
129.152000,1761
129.152500,1761
129.153000,1775
129.153500,1781
129.154000,1764
129.154500,1760
129.155000,1776
129.155500,1759
129.156000,1749
129.156500,1765
129.157000,1776
129.157500,1761
129.158000,1774
129.158500,1775
129.159000,1764
129.159500,1759
129.160000,1778
129.160500,1772
129.161000,1760
129.161500,1775
129.162000,1779
129.162500,1763
129.163000,1755
129.163500,1771
129.164000,1763
129.164500,1758
129.165000,1773
129.165500,1777
129.166000,1755
129.166500,1772
129.167000,1775
129.167500,1761
129.168000,1757
129.168500,1773
129.169000,1765
129.169500,1759
129.170000,1771
129.170500,1777
129.171000,1764
129.171500,1756
129.172000,1775
129.172500,1767
129.173000,1761
129.173500,1775
129.174000,1783
129.174500,1762
129.175000,1775
129.175500,1775
129.176000,1762
129.176500,1757
129.177000,1779
129.177500,1771
129.178000,1757
129.178500,1771
129.179000,1776
129.179500,1761
129.180000,1754
129.180500,1775
129.181000,1765
129.181500,1759
129.182000,1771
129.182500,1780
129.183000,1761
129.183500,1769
129.184000,1777
129.184500,1760
129.185000,1754
129.185500,1776
129.186000,1767
129.186500,1757
129.187000,1771
129.187500,1777
129.188000,1760
129.188500,1766
129.189000,1776
129.189500,1763
129.190000,1755
129.190500,1773
129.191000,1779
129.191500,1761
129.192000,1767
129.192500,1776
129.193000,1763
129.193500,1755
129.194000,1777
129.194500,1768
129.195000,1757
129.195500,1773
129.196000,1782
129.196500,1763
129.197000,1780
129.197500,1777
129.198000,1763
129.198500,1760
129.199000,1775
129.199500,1781
129.200000,1762
129.200500,1771
129.201000,1778
129.201500,1763
129.202000,1759
129.202500,1776
129.203000,1766
129.203500,1757
129.204000,1768
129.204500,1775
129.205000,1759
129.205500,1752
129.206000,1775
129.206500,1763
129.207000,1756
129.207500,1771
129.208000,1775
129.208500,1757
129.209000,1774
129.209500,1774
129.210000,1760
129.210500,1753
129.211000,1775
129.211500,1768
129.212000,1758
129.212500,1773
129.213000,1779
129.213500,1763
129.214000,1757
129.214500,1775
129.215000,1763
129.215500,1757
129.216000,1775
129.216500,1781
129.217000,1764
129.217500,1771
129.218000,1779
129.218500,1763
129.219000,1756
129.219500,1776
129.220000,1761
129.220500,1758
129.221000,1770
129.221500,1776
129.222000,1761
129.222500,1779
129.223000,1776
129.223500,1764
129.224000,1758
129.224500,1775
129.225000,1777
129.225500,1761
129.226000,1772
129.226500,1776
129.227000,1764
129.227500,1758
129.228000,1775
129.228500,1769
129.229000,1759
129.229500,1773
129.230000,1778
129.230500,1760
129.231000,1788
129.231500,1775
129.232000,1765
129.232500,1756
129.233000,1772
129.233500,1779
129.234000,1762
129.234500,1774
129.235000,1779
129.235500,1761
129.236000,1757
129.236500,1774
129.237000,1765
129.237500,1759
129.238000,1770
129.238500,1779
129.239000,1762
129.239500,1790
129.240000,1775
129.240500,1762
129.241000,1757
129.241500,1769
129.242000,1777
129.242500,1755
129.243000,1772
129.243500,1775
129.244000,1759
129.244500,1755
129.245000,1773
129.245500,1766
129.246000,1759
129.246500,1772
129.247000,1778
129.247500,1759
129.248000,1765
129.248500,1772
129.249000,1762
129.249500,1755
129.250000,1774
129.250500,1772
129.251000,1758
129.251500,1772
129.252000,1779
129.252500,1763
129.253000,1759
129.253500,1776
129.254000,1770
129.254500,1761
129.255000,1776
129.255500,1781
129.256000,1763
129.256500,1759
129.257000,1775
129.257500,1763
129.258000,1760
129.258500,1775
129.259000,1757
129.259500,1756
129.260000,1780
129.260500,1779
129.261000,1762
129.261500,1755
129.262000,1777
129.262500,1767
129.263000,1759
129.263500,1775
129.264000,1779
129.264500,1760
129.265000,1762
129.265500,1775
129.266000,1763
129.266500,1758
129.267000,1775
129.267500,1757
129.268000,1760
129.268500,1774
129.269000,1777
129.269500,1762
129.270000,1752
129.270500,1774
129.271000,1765
129.271500,1759
129.272000,1771
129.272500,1781
129.273000,1761
129.273500,1776
129.274000,1775
129.274500,1765
129.275000,1753
129.275500,1774
129.276000,1767
129.276500,1758
129.277000,1771
129.277500,1778
129.278000,1760
129.278500,1761
129.279000,1775
129.279500,1766
129.280000,1757
129.280500,1773
129.281000,1781
129.281500,1761
129.282000,1768
129.282500,1776
129.283000,1759
129.283500,1757
129.284000,1774
129.284500,1767
129.285000,1758
129.285500,1774
129.286000,1781
129.286500,1760
129.287000,1784
129.287500,1773
129.288000,1763
129.288500,1758
129.289000,1775
129.289500,1779
129.290000,1756
129.290500,1773
129.291000,1779
129.291500,1760
129.292000,1755
129.292500,1774
129.293000,1763
129.293500,1757
129.294000,1774
129.294500,1777
129.295000,1758
129.295500,1764
129.296000,1775
129.296500,1759
129.297000,1756
129.297500,1775
129.298000,1760
129.298500,1761
129.299000,1772
129.299500,1779
129.300000,1763
129.300500,1756
129.301000,1778
129.301500,1767
129.302000,1759
129.302500,1773
129.303000,1780
129.303500,1761
129.304000,1765
129.304500,1777
129.305000,1765
129.305500,1758
129.306000,1775
129.306500,1765
129.307000,1759
129.307500,1774
129.308000,1778
129.308500,1762
129.309000,1758
129.309500,1776
129.310000,1766
129.310500,1759
129.311000,1774
129.311500,1778
129.312000,1760
129.312500,1770
129.313000,1777
129.313500,1762
129.314000,1754
129.314500,1772
129.315000,1767
129.315500,1756
129.316000,1772
129.316500,1777
129.317000,1763
129.317500,1757
129.318000,1777
129.318500,1768
129.319000,1758
129.319500,1780
129.320000,1786
129.320500,1763
129.321000,1777
129.321500,1781
129.322000,1765
129.322500,1759
129.323000,1774
129.323500,1761
129.324000,1752
129.324500,1765
129.325000,1774
129.325500,1755
129.326000,1777
129.326500,1773
129.327000,1764
129.327500,1757
129.328000,1774
129.328500,1778
129.329000,1763
129.329500,1769
129.330000,1777
129.330500,1761
129.331000,1756
129.331500,1772
129.332000,1767
129.332500,1759
129.333000,1769
129.333500,1778
129.334000,1764
129.334500,1782
129.335000,1776
129.335500,1767
129.336000,1759
129.336500,1775
129.337000,1782
129.337500,1763
129.338000,1771
129.338500,1781
129.339000,1764
129.339500,1759
129.340000,1777
129.340500,1768
129.341000,1761
129.341500,1775
129.342000,1782
129.342500,1760
129.343000,1780
129.343500,1778
129.344000,1765
129.344500,1759
129.345000,1777
129.345500,1780
129.346000,1761
129.346500,1770
129.347000,1779
129.347500,1765
129.348000,1757
129.348500,1773
129.349000,1767
129.349500,1753
129.350000,1769
129.350500,1769
129.351000,1761
129.351500,1752
129.352000,1773
129.352500,1763
129.353000,1757
129.353500,1773
129.354000,1780
129.354500,1760
129.355000,1775
129.355500,1777
129.356000,1763
129.356500,1757
129.357000,1773
129.357500,1769
129.358000,1758
129.358500,1774
129.359000,1779
129.359500,1761
129.360000,1754
129.360500,1776
129.361000,1765
129.361500,1759
129.362000,1774
129.362500,1781
129.363000,1761
129.363500,1773
129.364000,1780
129.364500,1766
129.365000,1760
129.365500,1777
129.366000,1761
129.366500,1760
129.367000,1773
129.367500,1781
129.368000,1763
129.368500,1755
129.369000,1775
129.369500,1764
129.370000,1761
129.370500,1774
129.371000,1781
129.371500,1758
129.372000,1775
129.372500,1776
129.373000,1762
129.373500,1758
129.374000,1775
129.374500,1767
129.375000,1759
129.375500,1769
129.376000,1779
129.376500,1760
129.377000,1757
129.377500,1775
129.378000,1767
129.378500,1759
129.379000,1775
129.379500,1779
129.380000,1760
129.380500,1771
129.381000,1775
129.381500,1761
129.382000,1757
129.382500,1775
129.383000,1768
129.383500,1761
129.384000,1770
129.384500,1777
129.385000,1763
129.385500,1762
129.386000,1777
129.386500,1765
129.387000,1759
129.387500,1771
129.388000,1780
129.388500,1762
129.389000,1768
129.389500,1773
129.390000,1758
129.390500,1753
129.391000,1773
129.391500,1766
129.392000,1759
129.392500,1773
129.393000,1781
129.393500,1761
129.394000,1758
129.394500,1776
129.395000,1763
129.395500,1759
129.396000,1777
129.396500,1779
129.397000,1761
129.397500,1775
129.398000,1777
129.398500,1762
129.399000,1757
129.399500,1775
129.400000,1767
129.400500,1759
129.401000,1774
129.401500,1777
129.402000,1761
129.402500,1767
129.403000,1775
129.403500,1763
129.404000,1757
129.404500,1775
129.405000,1780
129.405500,1758
129.406000,1773
129.406500,1775
129.407000,1763
129.407500,1756
129.408000,1774
129.408500,1765
129.409000,1759
129.409500,1774
129.410000,1778
129.410500,1761
129.411000,1760
129.411500,1775
129.412000,1763
129.412500,1757
129.413000,1776
129.413500,1761
129.414000,1760
129.414500,1771
129.415000,1777
129.415500,1767
129.416000,1757
129.416500,1777
129.417000,1765
129.417500,1761
129.418000,1775
129.418500,1778
129.419000,1760
129.419500,1757
129.420000,1774
129.420500,1759
129.421000,1757
129.421500,1776
129.422000,1754
129.422500,1757
129.423000,1774
129.423500,1779
129.424000,1763
129.424500,1759
129.425000,1778
129.425500,1765
129.426000,1760
129.426500,1775
129.427000,1782
129.427500,1762
129.428000,1775
129.428500,1780
129.429000,1765
129.429500,1761
129.430000,1778
129.430500,1767
129.431000,1759
129.431500,1771
129.432000,1776
129.432500,1759
129.433000,1756
129.433500,1774
129.434000,1765
129.434500,1759
129.435000,1776
129.435500,1778
129.436000,1764
129.436500,1769
129.437000,1775
129.437500,1761
129.438000,1757
129.438500,1775
129.439000,1765
129.439500,1761
129.440000,1771
129.440500,1777
129.441000,1765
129.441500,1785
129.442000,1777
129.442500,1764
129.443000,1757
129.443500,1774
129.444000,1780
129.444500,1758
129.445000,1773
129.445500,1779
129.446000,1761
129.446500,1755
129.447000,1776
129.447500,1765
129.448000,1759
129.448500,1774
129.449000,1781
129.449500,1760
129.450000,1773
129.450500,1777
129.451000,1766
129.451500,1760
129.452000,1775
129.452500,1761
129.453000,1753
129.453500,1770
129.454000,1778
129.454500,1763
129.455000,1754
129.455500,1774
129.456000,1762
129.456500,1754
129.457000,1768
129.457500,1775
129.458000,1759
129.458500,1769
129.459000,1777
129.459500,1761
129.460000,1756
129.460500,1776
129.461000,1765
129.461500,1760
129.462000,1775
129.462500,1783
129.463000,1761
129.463500,1790
129.464000,1781
129.464500,1763
129.465000,1761
129.465500,1772
129.466000,1782
129.466500,1757
129.467000,1773
129.467500,1779
129.468000,1763
129.468500,1758
129.469000,1774
129.469500,1767
129.470000,1762
129.470500,1773
129.471000,1780
129.471500,1763
129.472000,1787
129.472500,1778
129.473000,1763
129.473500,1759
129.474000,1771
129.474500,1775
129.475000,1755
129.475500,1769
129.476000,1775
129.476500,1757
129.477000,1755
129.477500,1773
129.478000,1765
129.478500,1760
129.479000,1776
129.479500,1783
129.480000,1764
129.480500,1785
129.481000,1781
129.481500,1767
129.482000,1761
129.482500,1777
129.483000,1781
129.483500,1757
129.484000,1773
129.484500,1777
129.485000,1764
129.485500,1755
129.486000,1773
129.486500,1767
129.487000,1763
129.487500,1771
129.488000,1779
129.488500,1761
129.489000,1785
129.489500,1776
129.490000,1762
129.490500,1757
129.491000,1775
129.491500,1780
129.492000,1758
129.492500,1771
129.493000,1777
129.493500,1763
129.494000,1755
129.494500,1774
129.495000,1761
129.495500,1759
129.496000,1772
129.496500,1778
129.497000,1760
129.497500,1758
129.498000,1772
129.498500,1763
129.499000,1757
129.499500,1774
129.500000,1757
129.500500,1758
129.501000,1773
129.501500,1778
129.502000,1763
129.502500,1755
129.503000,1773
129.503500,1763
129.504000,1757
129.504500,1775
129.505000,1782
129.505500,1762
129.506000,1771
129.506500,1780
129.507000,1765
129.507500,1759
129.508000,1777
129.508500,1769
129.509000,1763
129.509500,1773
129.510000,1777
129.510500,1757
129.511000,1775
129.511500,1772
129.512000,1762
129.512500,1759
129.513000,1776
129.513500,1781
129.514000,1759
129.514500,1774
129.515000,1777
129.515500,1762
129.516000,1755
129.516500,1773
129.517000,1762
129.517500,1757
129.518000,1772
129.518500,1775
129.519000,1758
129.519500,1766
129.520000,1780
129.520500,1761
129.521000,1758
129.521500,1775
129.522000,1769
129.522500,1760
129.523000,1772
129.523500,1779
129.524000,1762
129.524500,1756
129.525000,1775
129.525500,1765
129.526000,1759
129.526500,1773
129.527000,1780
129.527500,1762
129.528000,1769
129.528500,1776
129.529000,1763
129.529500,1755
129.530000,1776
129.530500,1767
129.531000,1759
129.531500,1774
129.532000,1779
129.532500,1760
129.533000,1784
129.533500,1773
129.534000,1762
129.534500,1755
129.535000,1771
129.535500,1779
129.536000,1759
129.536500,1772
129.537000,1778
129.537500,1764
129.538000,1757
129.538500,1777
129.539000,1766
129.539500,1760
129.540000,1772
129.540500,1779
129.541000,1759
129.541500,1771
129.542000,1773
129.542500,1759
129.543000,1755
129.543500,1773
129.544000,1771
129.544500,1758
129.545000,1775
129.545500,1780
129.546000,1764
129.546500,1758
129.547000,1777
129.547500,1767
129.548000,1758
129.548500,1774
129.549000,1780
129.549500,1760
129.550000,1775
129.550500,1776
129.551000,1762
129.551500,1757
129.552000,1776
129.552500,1768
129.553000,1759
129.553500,1771
129.554000,1777
129.554500,1764
129.555000,1753
129.555500,1776
129.556000,1765
129.556500,1758
129.557000,1773
129.557500,1780
129.558000,1760
129.558500,1775
129.559000,1775
129.559500,1759
129.560000,1755
129.560500,1773
129.561000,1766
129.561500,1757
129.562000,1769
129.562500,1775
129.563000,1762
129.563500,1755
129.564000,1774
129.564500,1765
129.565000,1756
129.565500,1773
129.566000,1778
129.566500,1761
129.567000,1764
129.567500,1777
129.568000,1763
129.568500,1757
129.569000,1773
129.569500,1768
129.570000,1755
129.570500,1769
129.571000,1780
129.571500,1759
129.572000,1754
129.572500,1775
129.573000,1761
129.573500,1755
129.574000,1772
129.574500,1779
129.575000,1759
129.575500,1762
129.576000,1777
129.576500,1761
129.577000,1756
129.577500,1773
129.578000,1755
129.578500,1759
129.579000,1771
129.579500,1775
129.580000,1759
129.580500,1755
129.581000,1775
129.581500,1761
129.582000,1757
129.582500,1773
129.583000,1778
129.583500,1759
129.584000,1763
129.584500,1779
129.585000,1765
129.585500,1757
129.586000,1779
129.586500,1769
129.587000,1760
129.587500,1776
129.588000,1782
129.588500,1759
129.589000,1753
129.589500,1770
129.590000,1760
129.590500,1755
129.591000,1773
129.591500,1776
129.592000,1759
129.592500,1767
129.593000,1777
129.593500,1761
129.594000,1756
129.594500,1773
129.595000,1755
129.595500,1759
129.596000,1770
129.596500,1775
129.597000,1762
129.597500,1757
129.598000,1775
129.598500,1765
129.599000,1758
129.599500,1775
129.600000,1782
129.600500,1762
129.601000,1767
129.601500,1775
129.602000,1764
129.602500,1760
129.603000,1776
129.603500,1753
129.604000,1761
129.604500,1774
129.605000,1782
129.605500,1765
129.606000,1758
129.606500,1775
129.607000,1762
129.607500,1753
129.608000,1765
129.608500,1775
129.609000,1759
129.609500,1763
129.610000,1776
129.610500,1763
129.611000,1757
129.611500,1773
129.612000,1763
129.612500,1755
129.613000,1767
129.613500,1777
129.614000,1764
129.614500,1755
129.615000,1774
129.615500,1765
129.616000,1759
129.616500,1775
129.617000,1779
129.617500,1760
129.618000,1771
129.618500,1777
129.619000,1763
129.619500,1755
129.620000,1775
129.620500,1767
129.621000,1756
129.621500,1769
129.622000,1777
129.622500,1758
129.623000,1785
129.623500,1775
129.624000,1765
129.624500,1757
129.625000,1774
129.625500,1778
129.626000,1757
129.626500,1772
129.627000,1775
129.627500,1758
129.628000,1754
129.628500,1769
129.629000,1761
129.629500,1753
129.630000,1771
129.630500,1779
129.631000,1761
129.631500,1773
129.632000,1776
129.632500,1765
129.633000,1759
129.633500,1774
129.634000,1776
129.634500,1756
129.635000,1772
129.635500,1776
129.636000,1763
129.636500,1751
129.637000,1773
129.637500,1768
129.638000,1761
129.638500,1772
129.639000,1777
129.639500,1757
129.640000,1767
129.640500,1773
129.641000,1762
129.641500,1755
129.642000,1773
129.642500,1769
129.643000,1757
129.643500,1772
129.644000,1779
129.644500,1762
129.645000,1753
129.645500,1775
129.646000,1761
129.646500,1759
129.647000,1773
129.647500,1775
129.648000,1760
129.648500,1769
129.649000,1777
129.649500,1759
129.650000,1757
129.650500,1775
129.651000,1765
129.651500,1760
129.652000,1775
129.652500,1781
129.653000,1761
129.653500,1776
129.654000,1775
129.654500,1763
129.655000,1757
129.655500,1774
129.656000,1777
129.656500,1757
129.657000,1771
129.657500,1780
129.658000,1763
129.658500,1759
129.659000,1776
129.659500,1764
129.660000,1755
129.660500,1769
129.661000,1777
129.661500,1757
129.662000,1771
129.662500,1774
129.663000,1764
129.663500,1759
129.664000,1773
129.664500,1777
129.665000,1751
129.665500,1768
129.666000,1774
129.666500,1755
129.667000,1753
129.667500,1772
129.668000,1761
129.668500,1758
129.669000,1771
129.669500,1777
129.670000,1761
129.670500,1761
129.671000,1779
129.671500,1765
129.672000,1760
129.672500,1775
129.673000,1765
129.673500,1761
129.674000,1772
129.674500,1777
129.675000,1757
129.675500,1754
129.676000,1776
129.676500,1763
129.677000,1758
129.677500,1771
129.678000,1778
129.678500,1760
129.679000,1773
129.679500,1777
129.680000,1762
129.680500,1754
129.681000,1777
129.681500,1769
129.682000,1759
129.682500,1773
129.683000,1779
129.683500,1761
129.684000,1761
129.684500,1775
129.685000,1761
129.685500,1758
129.686000,1775
129.686500,1777
129.687000,1757
129.687500,1771
129.688000,1779
129.688500,1763
129.689000,1757
129.689500,1773
129.690000,1766
129.690500,1759
129.691000,1773
129.691500,1777
129.692000,1761
129.692500,1762
129.693000,1777
129.693500,1761
129.694000,1758
129.694500,1772
129.695000,1761
129.695500,1756
129.696000,1773
129.696500,1779
129.697000,1761
129.697500,1776
129.698000,1776
129.698500,1762
129.699000,1759
129.699500,1774
129.700000,1781
129.700500,1760
129.701000,1770
129.701500,1777
129.702000,1763
129.702500,1757
129.703000,1773
129.703500,1765
129.704000,1757
129.704500,1771
129.705000,1776
129.705500,1760
129.706000,1785
129.706500,1776
129.707000,1765
129.707500,1759
129.708000,1771
129.708500,1755
129.709000,1756
129.709500,1767
129.710000,1775
129.710500,1761
129.711000,1753
129.711500,1773
129.712000,1763
129.712500,1758
129.713000,1775
129.713500,1781
129.714000,1759
129.714500,1773
129.715000,1775
129.715500,1763
129.716000,1761
129.716500,1779
129.717000,1769
129.717500,1763
129.718000,1775
129.718500,1782
129.719000,1763
129.719500,1787
129.720000,1779
129.720500,1765
129.721000,1756
129.721500,1767
129.722000,1778
129.722500,1757
129.723000,1770
129.723500,1777
129.724000,1763
129.724500,1757
129.725000,1774
129.725500,1761
129.726000,1757
129.726500,1772
129.727000,1777
129.727500,1759
129.728000,1766
129.728500,1775
129.729000,1761
129.729500,1755
129.730000,1777
129.730500,1778
129.731000,1755
129.731500,1772
129.732000,1774
129.732500,1761
129.733000,1757
129.733500,1774
129.734000,1765
129.734500,1758
129.735000,1771
129.735500,1774
129.736000,1757
129.736500,1765
129.737000,1772
129.737500,1761
129.738000,1755
129.738500,1775
129.739000,1769
129.739500,1759
129.740000,1770
129.740500,1778
129.741000,1761
129.741500,1765
129.742000,1778
129.742500,1767
129.743000,1761
129.743500,1776
129.744000,1783
129.744500,1765
129.745000,1769
129.745500,1777
129.746000,1764
129.746500,1754
129.747000,1769
129.747500,1761
129.748000,1757
129.748500,1773
129.749000,1775
129.749500,1761
129.750000,1769
129.750500,1774
129.751000,1762
129.751500,1757
129.752000,1771
129.752500,1761
129.753000,1757
129.753500,1771
129.754000,1777
129.754500,1762
129.755000,1755
129.755500,1775
129.756000,1766
129.756500,1753
129.757000,1768
129.757500,1778
129.758000,1762
129.758500,1765
129.759000,1776
129.759500,1761
129.760000,1754
129.760500,1774
129.761000,1763
129.761500,1758
129.762000,1773
129.762500,1776
129.763000,1763
129.763500,1756
129.764000,1775
129.764500,1763
129.765000,1753
129.765500,1770
129.766000,1777
129.766500,1758
129.767000,1771
129.767500,1776
129.768000,1763
129.768500,1761
129.769000,1774
129.769500,1768
129.770000,1758
129.770500,1771
129.771000,1779
129.771500,1761
129.772000,1784
129.772500,1774
129.773000,1760
129.773500,1756
129.774000,1772
129.774500,1777
129.775000,1753
129.775500,1770
129.776000,1776
129.776500,1759
129.777000,1755
129.777500,1776
129.778000,1766
129.778500,1761
129.779000,1775
129.779500,1780
129.780000,1765
129.780500,1767
129.781000,1777
129.781500,1764
129.782000,1759
129.782500,1775
129.783000,1765
129.783500,1759
129.784000,1775
129.784500,1779
129.785000,1759
129.785500,1755
129.786000,1774
129.786500,1765
129.787000,1757
129.787500,1773
129.788000,1780
129.788500,1762
129.789000,1770
129.789500,1775
129.790000,1763
129.790500,1754
129.791000,1773
129.791500,1768
129.792000,1758
129.792500,1773
129.793000,1777
129.793500,1759
129.794000,1777
129.794500,1775
129.795000,1761
129.795500,1758
129.796000,1776
129.796500,1761
129.797000,1758
129.797500,1773
129.798000,1777
129.798500,1759
129.799000,1755
129.799500,1777
129.800000,1764
129.800500,1761
129.801000,1777
129.801500,1785
129.802000,1763
129.802500,1773
129.803000,1780
129.803500,1761
129.804000,1751
129.804500,1767
129.805000,1761
129.805500,1754
129.806000,1771
129.806500,1776
129.807000,1759
129.807500,1753
129.808000,1774
129.808500,1762
129.809000,1759
129.809500,1775
129.810000,1784
129.810500,1762
129.811000,1773
129.811500,1779
129.812000,1763
129.812500,1759
129.813000,1774
129.813500,1765
129.814000,1760
129.814500,1771
129.815000,1779
129.815500,1760
129.816000,1785
129.816500,1777
129.817000,1765
129.817500,1758
129.818000,1776
129.818500,1764
129.819000,1760
129.819500,1772
129.820000,1780
129.820500,1764
129.821000,1756
129.821500,1777
129.822000,1765
129.822500,1757
129.823000,1774
129.823500,1777
129.824000,1759
129.824500,1771
129.825000,1779
129.825500,1764
129.826000,1759
129.826500,1773
129.827000,1765
129.827500,1760
129.828000,1775
129.828500,1779
129.829000,1764
129.829500,1782
129.830000,1776
129.830500,1761
129.831000,1754
129.831500,1775
129.832000,1753
129.832500,1760
129.833000,1771
129.833500,1777
129.834000,1757
129.834500,1754
129.835000,1773
129.835500,1763
129.836000,1757
129.836500,1773
129.837000,1776
129.837500,1759
129.838000,1769
129.838500,1776
129.839000,1763
129.839500,1759
129.840000,1778
129.840500,1771
129.841000,1761
129.841500,1774
129.842000,1783
129.842500,1764
129.843000,1780
129.843500,1777
129.844000,1765
129.844500,1761
129.845000,1775
129.845500,1779
129.846000,1761
129.846500,1770
129.847000,1777
129.847500,1761
129.848000,1756
129.848500,1774
129.849000,1765
129.849500,1761
129.850000,1770
129.850500,1779
129.851000,1758
129.851500,1783
129.852000,1773
129.852500,1760
129.853000,1756
129.853500,1774
129.854000,1777
129.854500,1759
129.855000,1768
129.855500,1777
129.856000,1764
129.856500,1759
129.857000,1778
129.857500,1769
129.858000,1762
129.858500,1775
129.859000,1780
129.859500,1763
129.860000,1777
129.860500,1778
129.861000,1762
129.861500,1758
129.862000,1777
129.862500,1759
129.863000,1760
129.863500,1772
129.864000,1777
129.864500,1761
129.865000,1757
129.865500,1779
129.866000,1768
129.866500,1763
129.867000,1774
129.867500,1781
129.868000,1761
129.868500,1772
129.869000,1777
129.869500,1763
129.870000,1753
129.870500,1773
129.871000,1764
129.871500,1753
129.872000,1768
129.872500,1775
129.873000,1759
129.873500,1783
129.874000,1773
129.874500,1762
129.875000,1754
129.875500,1772
129.876000,1778
129.876500,1757
129.877000,1769
129.877500,1777
129.878000,1766
129.878500,1757
129.879000,1773
129.879500,1766
129.880000,1755
129.880500,1772
129.881000,1780
129.881500,1760
129.882000,1772
129.882500,1774
129.883000,1762
129.883500,1757
129.884000,1773
129.884500,1771
129.885000,1757
129.885500,1770
129.886000,1775
129.886500,1760
129.887000,1758
129.887500,1775
129.888000,1767
129.888500,1761
129.889000,1773
129.889500,1775
129.890000,1761
129.890500,1757
129.891000,1777
129.891500,1761
129.892000,1757
129.892500,1774
129.893000,1760
129.893500,1759
129.894000,1770
129.894500,1779
129.895000,1763
129.895500,1756
129.896000,1776
129.896500,1766
129.897000,1757
129.897500,1775
129.898000,1781
129.898500,1761
129.899000,1770
129.899500,1779
129.900000,1761
129.900500,1757
129.901000,1775
129.901500,1764
129.902000,1756
129.902500,1773
129.903000,1781
129.903500,1761
129.904000,1788
129.904500,1777
129.905000,1761
129.905500,1755
129.906000,1773
129.906500,1781
129.907000,1756
129.907500,1776
129.908000,1780
129.908500,1765
129.909000,1760
129.909500,1779
129.910000,1768
129.910500,1759
129.911000,1773
129.911500,1776
129.912000,1755
129.912500,1769
129.913000,1772
129.913500,1759
129.914000,1756
129.914500,1775
129.915000,1763
129.915500,1759
129.916000,1772
129.916500,1778
129.917000,1763
129.917500,1782
129.918000,1775
129.918500,1764
129.919000,1759
129.919500,1775
129.920000,1750
129.920500,1757
129.921000,1773
129.921500,1777
129.922000,1761
129.922500,1757
129.923000,1773
129.923500,1764
129.924000,1761
129.924500,1774
129.925000,1779
129.925500,1757
129.926000,1773
129.926500,1775
129.927000,1760
129.927500,1755
129.928000,1773
129.928500,1766
129.929000,1755
129.929500,1768
129.930000,1776
129.930500,1760
129.931000,1763
129.931500,1776
129.932000,1765
129.932500,1761
129.933000,1778
129.933500,1784
129.934000,1764
129.934500,1780
129.935000,1785
129.935500,1764
129.936000,1761
129.936500,1777
129.937000,1767
129.937500,1755
129.938000,1769
129.938500,1773
129.939000,1757
129.939500,1760
129.940000,1777
129.940500,1762
129.941000,1756
129.941500,1775
129.942000,1758
129.942500,1756
129.943000,1772
129.943500,1777
129.944000,1760
129.944500,1755
129.945000,1777
129.945500,1763
129.946000,1760
129.946500,1772
129.947000,1781
129.947500,1763
129.948000,1771
129.948500,1778
129.949000,1764
129.949500,1755
129.950000,1774
129.950500,1763
129.951000,1759
129.951500,1770
129.952000,1777
129.952500,1759
129.953000,1784
129.953500,1775
129.954000,1760
129.954500,1754
129.955000,1772
129.955500,1772
129.956000,1756
129.956500,1773
129.957000,1779
129.957500,1761
129.958000,1757
129.958500,1777
129.959000,1768
129.959500,1759
129.960000,1771
129.960500,1780
129.961000,1761
129.961500,1765
129.962000,1776
129.962500,1763
129.963000,1755
129.963500,1777
129.964000,1766
129.964500,1758
129.965000,1773
129.965500,1778
129.966000,1763
129.966500,1757
129.967000,1774
129.967500,1765
129.968000,1759
129.968500,1776
129.969000,1781
129.969500,1763
129.970000,1771
129.970500,1775
129.971000,1764
129.971500,1755
129.972000,1775
129.972500,1761
129.973000,1755
129.973500,1768
129.974000,1776
129.974500,1760
129.975000,1781
129.975500,1771
129.976000,1762
129.976500,1756
129.977000,1773
129.977500,1769
129.978000,1759
129.978500,1771
129.979000,1775
129.979500,1759
129.980000,1753
129.980500,1773
129.981000,1765
129.981500,1756
129.982000,1775
129.982500,1781
129.983000,1760
129.983500,1771
129.984000,1775
129.984500,1764
129.985000,1752
129.985500,1773
129.986000,1765
129.986500,1759
129.987000,1773
129.987500,1776
129.988000,1759
129.988500,1767
129.989000,1778
129.989500,1761
129.990000,1757
129.990500,1775
129.991000,1768
129.991500,1759
129.992000,1769
129.992500,1775
129.993000,1758
129.993500,1777
129.994000,1773
129.994500,1760
129.995000,1753
129.995500,1772
129.996000,1779
129.996500,1753
129.997000,1770
129.997500,1773
129.998000,1759
129.998500,1755
129.999000,1775
129.999500,1766
130.000000,1757
130.000500,1775
130.001000,1784
130.001500,1763
130.002000,1769
130.002500,1779
130.003000,1765
130.003500,1758
130.004000,1776
130.004500,1767
130.005000,1757
130.005500,1775
130.006000,1781
130.006500,1761
130.007000,1774
130.007500,1777
130.008000,1764
130.008500,1756
130.009000,1777
130.009500,1766
130.010000,1755
130.010500,1768
130.011000,1777
130.011500,1757
130.012000,1780
130.012500,1774
130.013000,1762
130.013500,1756
130.014000,1775
130.014500,1780
130.015000,1754
130.015500,1769
130.016000,1778
130.016500,1761
130.017000,1757
130.017500,1777
130.018000,1765
130.018500,1759
130.019000,1776
130.019500,1783
130.020000,1761
130.020500,1775
130.021000,1781
130.021500,1766
130.022000,1761
130.022500,1777
130.023000,1767
130.023500,1752
130.024000,1765
130.024500,1775
130.025000,1758
130.025500,1782
130.026000,1773
130.026500,1762
130.027000,1757
130.027500,1773
130.028000,1781
130.028500,1758
130.029000,1773
130.029500,1777
130.030000,1761
130.030500,1758
130.031000,1775
130.031500,1765
130.032000,1759
130.032500,1773
130.033000,1777
130.033500,1760
130.034000,1757
130.034500,1777
130.035000,1763
130.035500,1755
130.036000,1773
130.036500,1755
130.037000,1757
130.037500,1771
130.038000,1780
130.038500,1764
130.039000,1760
130.039500,1776
130.040000,1771
130.040500,1758
130.041000,1773
130.041500,1781
130.042000,1757
130.042500,1773
130.043000,1777
130.043500,1765
130.044000,1762
130.044500,1777
130.045000,1771
130.045500,1762
130.046000,1778
130.046500,1784
130.047000,1765
130.047500,1783
130.048000,1774
130.048500,1761
130.049000,1749
130.049500,1770
130.050000,1769
130.050500,1753
130.051000,1769
130.051500,1773
130.052000,1760
130.052500,1753
130.053000,1775
130.053500,1765
130.054000,1760
130.054500,1773
130.055000,1781
130.055500,1759
130.056000,1776
130.056500,1777
130.057000,1761
130.057500,1757
130.058000,1774
130.058500,1765
130.059000,1761
130.059500,1770
130.060000,1779
130.060500,1763
130.061000,1780
130.061500,1777
130.062000,1763
130.062500,1756
130.063000,1775
130.063500,1780
130.064000,1759
130.064500,1773
130.065000,1780
130.065500,1763
130.066000,1757
130.066500,1771
130.067000,1761
130.067500,1755
130.068000,1772
130.068500,1779
130.069000,1757
130.069500,1771
130.070000,1776
130.070500,1764
130.071000,1762
130.071500,1781
130.072000,1771
130.072500,1761
130.073000,1775
130.073500,1785
130.074000,1766
130.074500,1791
130.075000,1783
130.075500,1767
130.076000,1761
130.076500,1779
130.077000,1757
130.077500,1759
130.078000,1769
130.078500,1773
130.079000,1757
130.079500,1750
130.080000,1773
130.080500,1760
130.081000,1755
130.081500,1771
130.082000,1777
130.082500,1758
130.083000,1768
130.083500,1774
130.084000,1759
130.084500,1755
130.085000,1775
130.085500,1765
130.086000,1761
130.086500,1775
130.087000,1777
130.087500,1763
130.088000,1765
130.088500,1781
130.089000,1767
130.089500,1760
130.090000,1780
130.090500,1764
130.091000,1763
130.091500,1770
130.092000,1777
130.092500,1761
130.093000,1755
130.093500,1775
130.094000,1766
130.094500,1761
130.095000,1773
130.095500,1778
130.096000,1764
130.096500,1769
130.097000,1779
130.097500,1762
130.098000,1756
130.098500,1775
130.099000,1768
130.099500,1761
130.100000,1773
130.100500,1780
130.101000,1760
130.101500,1778
130.102000,1778
130.102500,1763
130.103000,1758
130.103500,1773
130.104000,1758
130.104500,1758
130.105000,1776
130.105500,1777
130.106000,1762
130.106500,1754
130.107000,1774
130.107500,1764
130.108000,1759
130.108500,1772
130.109000,1780
130.109500,1759
130.110000,1771
130.110500,1777
130.111000,1762
130.111500,1754
130.112000,1774
130.112500,1765
130.113000,1758
130.113500,1771
130.114000,1779
130.114500,1761
130.115000,1787
130.115500,1777
130.116000,1764
130.116500,1759
130.117000,1776
130.117500,1782
130.118000,1760
130.118500,1774
130.119000,1781
130.119500,1765
130.120000,1760
130.120500,1777
130.121000,1767
130.121500,1759
130.122000,1768
130.122500,1773
130.123000,1759
130.123500,1772
130.124000,1777
130.124500,1764
130.125000,1755
130.125500,1775
130.126000,1772
130.126500,1758
130.127000,1774
130.127500,1778
130.128000,1761
130.128500,1777
130.129000,1776
130.129500,1765
130.130000,1759
130.130500,1777
130.131000,1783
130.131500,1759
130.132000,1775
130.132500,1778
130.133000,1763
130.133500,1757
130.134000,1776
130.134500,1766
130.135000,1759
130.135500,1775
130.136000,1778
130.136500,1759
130.137000,1767
130.137500,1777
130.138000,1765
130.138500,1758
130.139000,1775
130.139500,1770
130.140000,1758
130.140500,1774
130.141000,1779
130.141500,1759
130.142000,1790
130.142500,1774
130.143000,1766
130.143500,1758
130.144000,1773
130.144500,1776
130.145000,1756
130.145500,1773
130.146000,1777
130.146500,1763
130.147000,1756
130.147500,1777
130.148000,1767
130.148500,1761
130.149000,1774
130.149500,1777
130.150000,1761
130.150500,1769
130.151000,1777
130.151500,1763
130.152000,1755
130.152500,1774
130.153000,1761
130.153500,1759
130.154000,1770
130.154500,1775
130.155000,1758
130.155500,1762
130.156000,1775
130.156500,1763
130.157000,1756
130.157500,1773
130.158000,1764
130.158500,1763
130.159000,1775
130.159500,1782
130.160000,1764
130.160500,1771
130.161000,1778
130.161500,1764
130.162000,1761
130.162500,1773
130.163000,1780
130.163500,1758
130.164000,1773
130.164500,1778
130.165000,1759
130.165500,1757
130.166000,1777
130.166500,1766
130.167000,1759
130.167500,1775
130.168000,1781
130.168500,1762
130.169000,1771
130.169500,1779
130.170000,1766
130.170500,1761
130.171000,1778
130.171500,1769
130.172000,1762
130.172500,1776
130.173000,1782
130.173500,1767
130.174000,1755
130.174500,1769
130.175000,1758
130.175500,1751
130.176000,1767
130.176500,1774
130.177000,1757
130.177500,1769
130.178000,1774
130.178500,1761
130.179000,1757
130.179500,1776
130.180000,1766
130.180500,1759
130.181000,1776
130.181500,1780
130.182000,1761
130.182500,1777
130.183000,1775
130.183500,1763
130.184000,1757
130.184500,1772
130.185000,1781
130.185500,1759
130.186000,1771
130.186500,1777
130.187000,1763
130.187500,1757
130.188000,1778
130.188500,1768
130.189000,1759
130.189500,1774
130.190000,1781
130.190500,1762
130.191000,1788
130.191500,1779
130.192000,1763
130.192500,1757
130.193000,1774
130.193500,1782
130.194000,1757
130.194500,1772
130.195000,1776
130.195500,1765
130.196000,1757
130.196500,1777
130.197000,1766
130.197500,1759
130.198000,1775
130.198500,1779
130.199000,1761
130.199500,1776
130.200000,1779
130.200500,1762
130.201000,1761
130.201500,1775
130.202000,1770
130.202500,1761
130.203000,1775
130.203500,1782
130.204000,1765
130.204500,1757
130.205000,1775
130.205500,1766
130.206000,1762
130.206500,1776
130.207000,1779
130.207500,1756
130.208000,1763
130.208500,1771
130.209000,1760
130.209500,1755
130.210000,1770
130.210500,1767
130.211000,1761
130.211500,1772
130.212000,1778
130.212500,1759
130.213000,1776
130.213500,1776
130.214000,1762
130.214500,1759
130.215000,1775
130.215500,1771
130.216000,1759
130.216500,1773
130.217000,1777
130.217500,1764
130.218000,1757
130.218500,1775
130.219000,1767
130.219500,1756
130.220000,1775
130.220500,1779
130.221000,1760
130.221500,1775
130.222000,1775
130.222500,1764
130.223000,1758
130.223500,1775
130.224000,1768
130.224500,1759
130.225000,1774
130.225500,1777
130.226000,1761
130.226500,1778
130.227000,1773
130.227500,1763
130.228000,1756
130.228500,1773
130.229000,1778
130.229500,1759
130.230000,1775
130.230500,1779
130.231000,1764
130.231500,1758
130.232000,1777
130.232500,1767
130.233000,1759
130.233500,1773
130.234000,1777
130.234500,1761
130.235000,1758
130.235500,1775
130.236000,1764
130.236500,1758
130.237000,1775
130.237500,1757
130.238000,1759
130.238500,1770
130.239000,1778
130.239500,1763
130.240000,1759
130.240500,1777
130.241000,1768
130.241500,1758
130.242000,1774
130.242500,1778
130.243000,1763
130.243500,1771
130.244000,1776
130.244500,1763
130.245000,1756
130.245500,1773
130.246000,1765
130.246500,1757
130.247000,1773
130.247500,1779
130.248000,1759
130.248500,1756
130.249000,1773
130.249500,1763
130.250000,1758
130.250500,1777
130.251000,1780
130.251500,1762
130.252000,1771
130.252500,1778
130.253000,1763
130.253500,1758
130.254000,1775
130.254500,1771
130.255000,1760
130.255500,1773
130.256000,1780
130.256500,1761
130.257000,1767
130.257500,1777
130.258000,1762
130.258500,1758
130.259000,1773
130.259500,1779
130.260000,1757
130.260500,1771
130.261000,1776
130.261500,1762
130.262000,1757
130.262500,1776
130.263000,1767
130.263500,1762
130.264000,1777
130.264500,1780
130.265000,1762
130.265500,1774
130.266000,1781
130.266500,1764
130.267000,1756
130.267500,1773
130.268000,1771
130.268500,1755
130.269000,1773
130.269500,1777
130.270000,1762
130.270500,1753
130.271000,1776
130.271500,1765
130.272000,1760
130.272500,1775
130.273000,1778
130.273500,1760
130.274000,1775
130.274500,1777
130.275000,1758
130.275500,1753
130.276000,1777
130.276500,1768
130.277000,1758
130.277500,1772
130.278000,1778
130.278500,1762
130.279000,1780
130.279500,1776
130.280000,1761
130.280500,1759
130.281000,1773
130.281500,1778
130.282000,1759
130.282500,1770
130.283000,1774
130.283500,1762
130.284000,1757
130.284500,1772
130.285000,1764
130.285500,1759
130.286000,1773
130.286500,1777
130.287000,1762
130.287500,1783
130.288000,1774
130.288500,1764
130.289000,1757
130.289500,1774
130.290000,1784
130.290500,1759
130.291000,1773
130.291500,1780
130.292000,1765
130.292500,1759
130.293000,1777
130.293500,1765
130.294000,1757
130.294500,1771
130.295000,1778
130.295500,1759
130.296000,1777
130.296500,1778
130.297000,1764
130.297500,1757
130.298000,1775
130.298500,1768
130.299000,1760
130.299500,1772
130.300000,1779
130.300500,1762
130.301000,1781
130.301500,1775
130.302000,1762
130.302500,1758
130.303000,1773
130.303500,1778
130.304000,1756
130.304500,1768
130.305000,1775
130.305500,1764
130.306000,1758
130.306500,1776
130.307000,1766
130.307500,1763
130.308000,1776
130.308500,1783
130.309000,1761
130.309500,1777
130.310000,1782
130.310500,1766
130.311000,1761
130.311500,1778
130.312000,1770
130.312500,1760
130.313000,1773
130.313500,1774
130.314000,1758
130.314500,1769
130.315000,1773
130.315500,1761
130.316000,1758
130.316500,1775
130.317000,1780
130.317500,1759
130.318000,1771
130.318500,1778
130.319000,1763
130.319500,1757
130.320000,1773
130.320500,1765
130.321000,1761
130.321500,1773
130.322000,1779
130.322500,1762
130.323000,1765
130.323500,1777
130.324000,1763
130.324500,1758
130.325000,1776
130.325500,1755
130.326000,1760
130.326500,1770
130.327000,1781
130.327500,1762
130.328000,1758
130.328500,1776
130.329000,1767
130.329500,1760
130.330000,1778
130.330500,1781
130.331000,1763
130.331500,1769
130.332000,1779
130.332500,1761
130.333000,1757
130.333500,1773
130.334000,1765
130.334500,1758
130.335000,1776
130.335500,1781
130.336000,1760
130.336500,1774
130.337000,1778
130.337500,1765
130.338000,1762
130.338500,1778
130.339000,1766
130.339500,1763
130.340000,1780
130.340500,1780
130.341000,1768
130.341500,1761
130.342000,1781
130.342500,1766
130.343000,1753
130.343500,1769
130.344000,1777
130.344500,1761
130.345000,1769
130.345500,1774
130.346000,1761
130.346500,1753
130.347000,1773
130.347500,1761
130.348000,1757
130.348500,1769
130.349000,1777
130.349500,1760
130.350000,1777
130.350500,1774
130.351000,1768
130.351500,1759
130.352000,1777
130.352500,1757
130.353000,1762
130.353500,1773
130.354000,1780
130.354500,1761
130.355000,1759
130.355500,1780
130.356000,1770
130.356500,1762
130.357000,1779
130.357500,1782
130.358000,1763
130.358500,1772
130.359000,1779
130.359500,1765
130.360000,1757
130.360500,1773
130.361000,1768
130.361500,1758
130.362000,1771
130.362500,1781
130.363000,1762
130.363500,1771
130.364000,1777
130.364500,1764
130.365000,1757
130.365500,1776
130.366000,1763
130.366500,1757
130.367000,1773
130.367500,1777
130.368000,1760
130.368500,1755
130.369000,1775
130.369500,1763
130.370000,1760
130.370500,1776
130.371000,1781
130.371500,1761
130.372000,1771
130.372500,1779
130.373000,1765
130.373500,1757
130.374000,1774
130.374500,1766
130.375000,1757
130.375500,1771
130.376000,1779
130.376500,1762
130.377000,1785
130.377500,1774
130.378000,1763
130.378500,1756
130.379000,1777
130.379500,1761
130.380000,1755
130.380500,1774
130.381000,1780
130.381500,1762
130.382000,1753
130.382500,1771
130.383000,1763
130.383500,1759
130.384000,1776
130.384500,1777
130.385000,1761
130.385500,1771
130.386000,1780
130.386500,1765
130.387000,1760
130.387500,1778
130.388000,1766
130.388500,1762
130.389000,1777
130.389500,1780
130.390000,1762
130.390500,1765
130.391000,1779
130.391500,1765
130.392000,1756
130.392500,1776
130.393000,1766
130.393500,1759
130.394000,1771
130.394500,1777
130.395000,1760
130.395500,1778
130.396000,1777
130.396500,1763
130.397000,1758
130.397500,1773
130.398000,1783
130.398500,1759
130.399000,1776
130.399500,1778
130.400000,1761
130.400500,1756
130.401000,1779
130.401500,1765
130.402000,1759
130.402500,1772
130.403000,1781
130.403500,1762
130.404000,1777
130.404500,1779
130.405000,1763
130.405500,1757
130.406000,1774
130.406500,1765
130.407000,1753
130.407500,1769
130.408000,1778
130.408500,1762
130.409000,1755
130.409500,1775
130.410000,1761
130.410500,1759
130.411000,1773
130.411500,1780
130.412000,1758
130.412500,1771
130.413000,1775
130.413500,1762
130.414000,1756
130.414500,1771
130.415000,1768
130.415500,1756
130.416000,1771
130.416500,1777
130.417000,1757
130.417500,1768
130.418000,1775
130.418500,1764
130.419000,1760
130.419500,1780
130.420000,1772
130.420500,1760
130.421000,1774
130.421500,1778
130.422000,1763
130.422500,1790
130.423000,1778
130.423500,1763
130.424000,1755
130.424500,1768
130.425000,1752
130.425500,1758
130.426000,1775
130.426500,1780
130.427000,1762
130.427500,1759
130.428000,1777
130.428500,1767
130.429000,1761
130.429500,1775
130.430000,1776
130.430500,1762
130.431000,1769
130.431500,1779
130.432000,1764
130.432500,1757
130.433000,1771
130.433500,1765
130.434000,1755
130.434500,1773
130.435000,1781
130.435500,1762
130.436000,1761
130.436500,1777
130.437000,1763
130.437500,1757
130.438000,1776
130.438500,1755
130.439000,1758
130.439500,1771
130.440000,1783
130.440500,1763
130.441000,1756
130.441500,1775
130.442000,1765
130.442500,1757
130.443000,1769
130.443500,1773
130.444000,1761
130.444500,1768
130.445000,1775
130.445500,1764
130.446000,1757
130.446500,1778
130.447000,1768
130.447500,1760
130.448000,1775
130.448500,1780
130.449000,1765
130.449500,1763
130.450000,1779
130.450500,1767
130.451000,1759
130.451500,1777
130.452000,1763
130.452500,1761
130.453000,1769
130.453500,1777
130.454000,1764
130.454500,1757
130.455000,1780
130.455500,1765
130.456000,1760
130.456500,1773
130.457000,1775
130.457500,1761
130.458000,1772
130.458500,1779
130.459000,1763
130.459500,1757
130.460000,1778
130.460500,1769
130.461000,1762
130.461500,1774
130.462000,1777
130.462500,1759
130.463000,1783
130.463500,1777
130.464000,1765
130.464500,1760
130.465000,1774
130.465500,1777
130.466000,1759
130.466500,1772
130.467000,1779
130.467500,1765
130.468000,1759
130.468500,1776
130.469000,1767
130.469500,1761
130.470000,1776
130.470500,1776
130.471000,1757
130.471500,1766
130.472000,1772
130.472500,1760
130.473000,1758
130.473500,1773
130.474000,1761
130.474500,1758
130.475000,1775
130.475500,1781
130.476000,1765
130.476500,1758
130.477000,1780
130.477500,1765
130.478000,1759
130.478500,1775
130.479000,1782
130.479500,1764
130.480000,1771
130.480500,1780
130.481000,1766
130.481500,1758
130.482000,1776
130.482500,1768
130.483000,1759
130.483500,1775
130.484000,1780
130.484500,1761
130.485000,1763
130.485500,1776
130.486000,1764
130.486500,1761
130.487000,1777
130.487500,1765
130.488000,1759
130.488500,1773
130.489000,1778
130.489500,1763
130.490000,1754
130.490500,1776
130.491000,1765
130.491500,1758
130.492000,1773
130.492500,1777
130.493000,1763
130.493500,1769
130.494000,1779
130.494500,1765
130.495000,1757
130.495500,1773
130.496000,1767
130.496500,1758
130.497000,1772
130.497500,1779
130.498000,1763
130.498500,1768
130.499000,1780
130.499500,1765
130.500000,1755
130.500500,1774
130.501000,1765
130.501500,1758
130.502000,1772
130.502500,1777
130.503000,1762
130.503500,1779
130.504000,1777
130.504500,1763
130.505000,1753
130.505500,1775
130.506000,1773
130.506500,1757
130.507000,1770
130.507500,1775
130.508000,1762
130.508500,1759
130.509000,1776
130.509500,1766
130.510000,1760
130.510500,1775
130.511000,1778
130.511500,1763
130.512000,1770
130.512500,1777
130.513000,1763
130.513500,1754
130.514000,1774
130.514500,1766
130.515000,1756
130.515500,1772
130.516000,1780
130.516500,1761
130.517000,1755
130.517500,1777
130.518000,1765
130.518500,1759
130.519000,1774
130.519500,1780
130.520000,1758
130.520500,1772
130.521000,1780
130.521500,1763
130.522000,1759
130.522500,1776
130.523000,1766
130.523500,1761
130.524000,1774
130.524500,1781
130.525000,1761
130.525500,1775
130.526000,1782
130.526500,1763
130.527000,1759
130.527500,1778
130.528000,1769
130.528500,1763
130.529000,1774
130.529500,1780
130.530000,1762
130.530500,1758
130.531000,1772
130.531500,1759
130.532000,1757
130.532500,1775
130.533000,1759
130.533500,1759
130.534000,1773
130.534500,1775
130.535000,1757
130.535500,1754
130.536000,1777
130.536500,1764
130.537000,1758
130.537500,1775
130.538000,1780
130.538500,1762
130.539000,1772
130.539500,1776
130.540000,1763
130.540500,1757
130.541000,1777
130.541500,1767
130.542000,1760
130.542500,1776
130.543000,1779
130.543500,1761
130.544000,1762
130.544500,1779
130.545000,1766
130.545500,1759
130.546000,1777
130.546500,1765
130.547000,1762
130.547500,1771
130.548000,1779
130.548500,1761
130.549000,1756
130.549500,1777
130.550000,1765
130.550500,1759
130.551000,1775
130.551500,1781
130.552000,1759
130.552500,1768
130.553000,1777
130.553500,1761
130.554000,1757
130.554500,1775
130.555000,1768
130.555500,1759
130.556000,1774
130.556500,1777
130.557000,1764
130.557500,1783
130.558000,1777
130.558500,1766
130.559000,1761
130.559500,1774
130.560000,1780
130.560500,1762
130.561000,1773
130.561500,1781
130.562000,1766
130.562500,1759
130.563000,1776
130.563500,1766
130.564000,1761
130.564500,1773
130.565000,1781
130.565500,1762
130.566000,1770
130.566500,1775
130.567000,1761
130.567500,1757
130.568000,1773
130.568500,1753
130.569000,1761
130.569500,1774
130.570000,1779
130.570500,1763
130.571000,1759
130.571500,1777
130.572000,1765
130.572500,1759
130.573000,1773
130.573500,1776
130.574000,1759
130.574500,1769
130.575000,1776
130.575500,1761
130.576000,1755
130.576500,1773
130.577000,1763
130.577500,1759
130.578000,1771
130.578500,1779
130.579000,1761
130.579500,1765
130.580000,1778
130.580500,1763
130.581000,1759
130.581500,1777
130.582000,1755
130.582500,1760
130.583000,1771
130.583500,1780
130.584000,1763
130.584500,1754
130.585000,1776
130.585500,1767
130.586000,1759
130.586500,1776
130.587000,1781
130.587500,1760
130.588000,1773
130.588500,1780
130.589000,1764
130.589500,1758
130.590000,1775
130.590500,1765
130.591000,1759
130.591500,1772
130.592000,1778
130.592500,1764
130.593000,1769
130.593500,1778
130.594000,1767
130.594500,1761
130.595000,1779
130.595500,1757
130.596000,1765
130.596500,1777
130.597000,1780
130.597500,1765
130.598000,1758
130.598500,1774
130.599000,1764
130.599500,1757
130.600000,1774
130.600500,1778
130.601000,1762
130.601500,1769
130.602000,1775
130.602500,1761
130.603000,1759
130.603500,1775
130.604000,1765
130.604500,1760
130.605000,1773
130.605500,1776
130.606000,1760
130.606500,1759
130.607000,1776
130.607500,1763
130.608000,1759
130.608500,1774
130.609000,1759
130.609500,1759
130.610000,1773
130.610500,1778
130.611000,1762
130.611500,1755
130.612000,1772
130.612500,1763
130.613000,1757
130.613500,1772
130.614000,1779
130.614500,1761
130.615000,1772
130.615500,1777
130.616000,1766
130.616500,1760
130.617000,1776
130.617500,1768
130.618000,1763
130.618500,1775
130.619000,1781
130.619500,1767
130.620000,1757
130.620500,1777
130.621000,1765
130.621500,1763
130.622000,1775
130.622500,1780
130.623000,1759
130.623500,1772
130.624000,1781
130.624500,1763
130.625000,1759
130.625500,1773
130.626000,1769
130.626500,1759
130.627000,1774
130.627500,1779
130.628000,1763
130.628500,1760
130.629000,1778
130.629500,1763
130.630000,1759
130.630500,1774
130.631000,1757
130.631500,1761
130.632000,1773
130.632500,1777
130.633000,1764
130.633500,1757
130.634000,1775
130.634500,1764
130.635000,1756
130.635500,1772
130.636000,1779
130.636500,1760
130.637000,1763
130.637500,1777
130.638000,1763
130.638500,1759
130.639000,1777
130.639500,1775
130.640000,1759
130.640500,1773
130.641000,1779
130.641500,1763
130.642000,1757
130.642500,1778
130.643000,1767
130.643500,1759
130.644000,1775
130.644500,1781
130.645000,1757
130.645500,1769
130.646000,1777
130.646500,1765
130.647000,1758
130.647500,1777
130.648000,1763
130.648500,1759
130.649000,1773
130.649500,1777
130.650000,1761
130.650500,1756
130.651000,1776
130.651500,1765
130.652000,1760
130.652500,1772
130.653000,1780
130.653500,1761
130.654000,1761
130.654500,1778
130.655000,1761
130.655500,1756
130.656000,1773
130.656500,1753
130.657000,1758
130.657500,1770
130.658000,1779
130.658500,1761
130.659000,1757
130.659500,1777
130.660000,1763
130.660500,1757
130.661000,1775
130.661500,1779
130.662000,1760
130.662500,1773
130.663000,1777
130.663500,1763
130.664000,1756
130.664500,1777
130.665000,1765
130.665500,1759
130.666000,1773
130.666500,1779
130.667000,1763
130.667500,1784
130.668000,1777
130.668500,1766
130.669000,1757
130.669500,1775
130.670000,1777
130.670500,1760
130.671000,1775
130.671500,1778
130.672000,1762
130.672500,1761
130.673000,1773
130.673500,1766
130.674000,1757
130.674500,1770
130.675000,1778
130.675500,1758
130.676000,1771
130.676500,1776
130.677000,1763
130.677500,1759
130.678000,1777
130.678500,1773
130.679000,1763
130.679500,1777
130.680000,1781
130.680500,1764
130.681000,1779
130.681500,1775
130.682000,1765
130.682500,1761
130.683000,1775
130.683500,1781
130.684000,1763
130.684500,1775
130.685000,1785
130.685500,1762
130.686000,1757
130.686500,1770
130.687000,1764
130.687500,1759
130.688000,1775
130.688500,1779
130.689000,1764
130.689500,1773
130.690000,1782
130.690500,1766
130.691000,1759
130.691500,1775
130.692000,1781
130.692500,1758
130.693000,1775
130.693500,1779
130.694000,1767
130.694500,1760
130.695000,1781
130.695500,1767
130.696000,1758
130.696500,1774
130.697000,1775
130.697500,1757
130.698000,1767
130.698500,1777
130.699000,1765
130.699500,1759
130.700000,1781
130.700500,1767
130.701000,1761
130.701500,1774
130.702000,1779
130.702500,1763
130.703000,1757
130.703500,1775
130.704000,1765
130.704500,1754
130.705000,1774
130.705500,1775
130.706000,1760
130.706500,1769
130.707000,1776
130.707500,1761
130.708000,1759
130.708500,1775
130.709000,1766
130.709500,1761
130.710000,1773
130.710500,1778
130.711000,1761
130.711500,1761
130.712000,1778
130.712500,1765
130.713000,1759
130.713500,1777
130.714000,1764
130.714500,1759
130.715000,1773
130.715500,1777
130.716000,1764
130.716500,1767
130.717000,1775
130.717500,1765
130.718000,1760
130.718500,1773
130.719000,1778
130.719500,1759
130.720000,1775
130.720500,1777
130.721000,1763
130.721500,1759
130.722000,1773
130.722500,1766
130.723000,1761
130.723500,1775
130.724000,1783
130.724500,1765
130.725000,1776
130.725500,1776
130.726000,1765
130.726500,1759
130.727000,1775
130.727500,1770
130.728000,1760
130.728500,1777
130.729000,1779
130.729500,1763
130.730000,1754
130.730500,1775
130.731000,1766
130.731500,1759
130.732000,1773
130.732500,1779
130.733000,1758
130.733500,1775
130.734000,1775
130.734500,1764
130.735000,1756
130.735500,1777
130.736000,1775
130.736500,1762
130.737000,1776
130.737500,1783
130.738000,1765
130.738500,1772
130.739000,1779
130.739500,1768
130.740000,1757
130.740500,1778
130.741000,1789
130.741500,1766
130.742000,1777
130.742500,1784
130.743000,1766
130.743500,1758
130.744000,1777
130.744500,1763
130.745000,1753
130.745500,1766
130.746000,1777
130.746500,1758
130.747000,1759
130.747500,1775
130.748000,1763
130.748500,1757
130.749000,1775
130.749500,1753
130.750000,1756
130.750500,1774
130.751000,1780
130.751500,1763
130.752000,1755
130.752500,1776
130.753000,1767
130.753500,1759
130.754000,1772
130.754500,1779
130.755000,1760
130.755500,1775
130.756000,1779
130.756500,1763
130.757000,1754
130.757500,1775
130.758000,1771
130.758500,1759
130.759000,1771
130.759500,1776
130.760000,1760
130.760500,1786
130.761000,1777
130.761500,1764
130.762000,1760
130.762500,1773
130.763000,1782
130.763500,1757
130.764000,1772
130.764500,1776
130.765000,1761
130.765500,1755
130.766000,1775
130.766500,1766
130.767000,1759
130.767500,1773
130.768000,1778
130.768500,1761
130.769000,1776
130.769500,1778
130.770000,1761
130.770500,1758
130.771000,1779
130.771500,1769
130.772000,1763
130.772500,1771
130.773000,1780
130.773500,1761
130.774000,1781
130.774500,1777
130.775000,1762
130.775500,1755
130.776000,1773
130.776500,1756
130.777000,1757
130.777500,1773
130.778000,1777
130.778500,1762
130.779000,1756
130.779500,1775
130.780000,1765
130.780500,1758
130.781000,1776
130.781500,1781
130.782000,1765
130.782500,1773
130.783000,1781
130.783500,1767
130.784000,1761
130.784500,1777
130.785000,1766
130.785500,1757
130.786000,1775
130.786500,1781
130.787000,1760
130.787500,1761
130.788000,1775
130.788500,1761
130.789000,1759
130.789500,1775
130.790000,1764
130.790500,1761
130.791000,1773
130.791500,1779
130.792000,1762
130.792500,1759
130.793000,1779
130.793500,1769
130.794000,1764
130.794500,1779
130.795000,1787
130.795500,1760
130.796000,1773
130.796500,1775
130.797000,1758
130.797500,1755
130.798000,1771
130.798500,1766
130.799000,1758
130.799500,1773
130.800000,1779
130.800500,1761
130.801000,1761
130.801500,1777
130.802000,1764
130.802500,1755
130.803000,1773
130.803500,1763
130.804000,1760
130.804500,1772
130.805000,1777
130.805500,1763
130.806000,1757
130.806500,1777
130.807000,1764
130.807500,1759
130.808000,1775
130.808500,1781
130.809000,1759
130.809500,1773
130.810000,1778
130.810500,1765
130.811000,1758
130.811500,1779
130.812000,1767
130.812500,1764
130.813000,1775
130.813500,1780
130.814000,1763
130.814500,1765
130.815000,1779
130.815500,1761
130.816000,1759
130.816500,1778
130.817000,1759
130.817500,1759
130.818000,1772
130.818500,1777
130.819000,1763
130.819500,1757
130.820000,1777
130.820500,1768
130.821000,1760
130.821500,1777
130.822000,1781
130.822500,1759
130.823000,1773
130.823500,1778
130.824000,1765
130.824500,1759
130.825000,1780
130.825500,1772
130.826000,1764
130.826500,1777
130.827000,1781
130.827500,1763
130.828000,1774
130.828500,1776
130.829000,1762
130.829500,1755
130.830000,1769
130.830500,1775
130.831000,1755
130.831500,1771
130.832000,1775
130.832500,1759
130.833000,1755
130.833500,1777
130.834000,1765
130.834500,1757
130.835000,1773
130.835500,1780
130.836000,1761
130.836500,1769
130.837000,1775
130.837500,1762
130.838000,1756
130.838500,1775
130.839000,1773
130.839500,1759
130.840000,1773
130.840500,1775
130.841000,1761
130.841500,1788
130.842000,1781
130.842500,1768
130.843000,1765
130.843500,1778
130.844000,1779
130.844500,1759
130.845000,1773
130.845500,1778
130.846000,1759
130.846500,1752
130.847000,1770
130.847500,1760
130.848000,1756
130.848500,1773
130.849000,1776
130.849500,1759
130.850000,1773
130.850500,1775
130.851000,1759
130.851500,1758
130.852000,1771
130.852500,1769
130.853000,1759
130.853500,1772
130.854000,1779
130.854500,1761
130.855000,1766
130.855500,1776
130.856000,1767
130.856500,1761
130.857000,1774
130.857500,1780
130.858000,1759
130.858500,1775
130.859000,1781
130.859500,1767
130.860000,1756
130.860500,1778
130.861000,1768
130.861500,1758
130.862000,1775
130.862500,1779
130.863000,1762
130.863500,1767
130.864000,1780
130.864500,1765
130.865000,1760
130.865500,1775
130.866000,1759
130.866500,1759
130.867000,1773
130.867500,1780
130.868000,1761
130.868500,1755
130.869000,1775
130.869500,1764
130.870000,1756
130.870500,1774
130.871000,1779
130.871500,1758
130.872000,1774
130.872500,1777
130.873000,1760
130.873500,1760
130.874000,1777
130.874500,1771
130.875000,1763
130.875500,1775
130.876000,1781
130.876500,1764
130.877000,1782
130.877500,1776
130.878000,1762
130.878500,1757
130.879000,1774
130.879500,1781
130.880000,1760
130.880500,1773
130.881000,1782
130.881500,1768
130.882000,1758
130.882500,1773
130.883000,1766
130.883500,1762
130.884000,1773
130.884500,1780
130.885000,1761
130.885500,1773
130.886000,1781
130.886500,1763
130.887000,1756
130.887500,1775
130.888000,1760
130.888500,1760
130.889000,1773
130.889500,1777
130.890000,1761
130.890500,1752
130.891000,1775
130.891500,1765
130.892000,1757
130.892500,1773
130.893000,1777
130.893500,1761
130.894000,1769
130.894500,1777
130.895000,1761
130.895500,1755
130.896000,1776
130.896500,1768
130.897000,1760
130.897500,1774
130.898000,1779
130.898500,1762
130.899000,1780
130.899500,1779
130.900000,1763
130.900500,1756
130.901000,1777
130.901500,1758
130.902000,1760
130.902500,1773
130.903000,1776
130.903500,1765
130.904000,1756
130.904500,1777
130.905000,1765
130.905500,1760
130.906000,1777
130.906500,1780
130.907000,1761
130.907500,1769
130.908000,1776
130.908500,1763
130.909000,1759
130.909500,1777
130.910000,1769
130.910500,1762
130.911000,1772
130.911500,1778
130.912000,1762
130.912500,1774
130.913000,1777
130.913500,1763
130.914000,1761
130.914500,1774
130.915000,1780
130.915500,1757
130.916000,1774
130.916500,1777
130.917000,1763
130.917500,1756
130.918000,1774
130.918500,1765
130.919000,1761
130.919500,1773
130.920000,1783
130.920500,1761
130.921000,1769
130.921500,1777
130.922000,1762
130.922500,1760
130.923000,1777
130.923500,1764
130.924000,1759
130.924500,1774
130.925000,1781
130.925500,1762
130.926000,1775
130.926500,1778
130.927000,1764
130.927500,1758
130.928000,1775
130.928500,1780
130.929000,1760
130.929500,1773
130.930000,1779
130.930500,1763
130.931000,1758
130.931500,1776
130.932000,1765
130.932500,1756
130.933000,1773
130.933500,1778
130.934000,1759
130.934500,1775
130.935000,1779
130.935500,1763
130.936000,1757
130.936500,1776
130.937000,1766
130.937500,1759
130.938000,1777
130.938500,1780
130.939000,1763
130.939500,1787
130.940000,1775
130.940500,1763
130.941000,1757
130.941500,1773
130.942000,1775
130.942500,1758
130.943000,1771
130.943500,1777
130.944000,1762
130.944500,1757
130.945000,1776
130.945500,1768
130.946000,1760
130.946500,1778
130.947000,1782
130.947500,1762
130.948000,1770
130.948500,1780
130.949000,1767
130.949500,1761
130.950000,1776
130.950500,1769
130.951000,1761
130.951500,1777
130.952000,1779
130.952500,1762
130.953000,1777
130.953500,1768
130.954000,1756
130.954500,1753
130.955000,1769
130.955500,1759
130.956000,1756
130.956500,1769
130.957000,1775
130.957500,1760
130.958000,1754
130.958500,1774
130.959000,1764
130.959500,1759
130.960000,1775
130.960500,1779
130.961000,1762
130.961500,1773
130.962000,1777
130.962500,1767
130.963000,1761
130.963500,1779
130.964000,1771
130.964500,1763
130.965000,1776
130.965500,1783
130.966000,1763
130.966500,1787
130.967000,1775
130.967500,1765
130.968000,1761
130.968500,1777
130.969000,1780
130.969500,1757
130.970000,1775
130.970500,1778
130.971000,1762
130.971500,1760
130.972000,1777
130.972500,1766
130.973000,1760
130.973500,1771
130.974000,1780
130.974500,1761
130.975000,1762
130.975500,1776
130.976000,1767
130.976500,1759
130.977000,1773
130.977500,1754
130.978000,1759
130.978500,1775
130.979000,1781
130.979500,1766
130.980000,1760
130.980500,1779
130.981000,1769
130.981500,1762
130.982000,1778
130.982500,1782
130.983000,1763
130.983500,1775
130.984000,1775
130.984500,1763
130.985000,1759
130.985500,1776
130.986000,1769
130.986500,1759
130.987000,1773
130.987500,1779
130.988000,1763
130.988500,1759
130.989000,1775
130.989500,1759
130.990000,1752
130.990500,1769
130.991000,1777
130.991500,1758
130.992000,1776
130.992500,1775
130.993000,1762
130.993500,1759
130.994000,1776
130.994500,1768
130.995000,1760
130.995500,1774
130.996000,1779
130.996500,1763
130.997000,1758
130.997500,1777
130.998000,1762
130.998500,1757
130.999000,1773
130.999500,1779
131.000000,1758
131.000500,1777
131.001000,1779
131.001500,1761
131.002000,1760
131.002500,1775
131.003000,1771
131.003500,1761
131.004000,1774
131.004500,1781
131.005000,1766
131.005500,1755
131.006000,1776
131.006500,1765
131.007000,1761
131.007500,1774
131.008000,1781
131.008500,1760
131.009000,1775
131.009500,1777
131.010000,1765
131.010500,1755
131.011000,1775
131.011500,1766
131.012000,1761
131.012500,1773
131.013000,1777
131.013500,1762
131.014000,1771
131.014500,1774
131.015000,1763
131.015500,1757
131.016000,1775
131.016500,1764
131.017000,1761
131.017500,1771
131.018000,1775
131.018500,1763
131.019000,1757
131.019500,1775
131.020000,1767
131.020500,1759
131.021000,1775
131.021500,1780
131.022000,1761
131.022500,1773
131.023000,1778
131.023500,1765
131.024000,1760
131.024500,1775
131.025000,1767
131.025500,1761
131.026000,1773
131.026500,1780
131.027000,1759
131.027500,1785
131.028000,1778
131.028500,1766
131.029000,1761
131.029500,1773
131.030000,1782
131.030500,1758
131.031000,1775
131.031500,1776
131.032000,1761
131.032500,1756
131.033000,1775
131.033500,1766
131.034000,1761
131.034500,1774
131.035000,1780
131.035500,1761
131.036000,1761
131.036500,1780
131.037000,1765
131.037500,1757
131.038000,1772
131.038500,1757
131.039000,1758
131.039500,1774
131.040000,1781
131.040500,1764
131.041000,1760
131.041500,1778
131.042000,1768
131.042500,1763
131.043000,1778
131.043500,1784
131.044000,1766
131.044500,1774
131.045000,1776
131.045500,1764
131.046000,1756
131.046500,1775
131.047000,1768
131.047500,1757
131.048000,1772
131.048500,1779
131.049000,1761
131.049500,1789
131.050000,1778
131.050500,1765
131.051000,1759
131.051500,1776
131.052000,1781
131.052500,1760
131.053000,1777
131.053500,1778
131.054000,1765
131.054500,1760
131.055000,1777
131.055500,1772
131.056000,1761
131.056500,1780
131.057000,1783
131.057500,1764
131.058000,1772
131.058500,1776
131.059000,1761
131.059500,1754
131.060000,1771
131.060500,1766
131.061000,1757
131.061500,1771
131.062000,1775
131.062500,1759
131.063000,1757
131.063500,1774
131.064000,1767
131.064500,1759
131.065000,1771
131.065500,1777
131.066000,1760
131.066500,1759
131.067000,1776
131.067500,1761
131.068000,1757
131.068500,1777
131.069000,1769
131.069500,1759
131.070000,1773
131.070500,1778
131.071000,1764
131.071500,1766
131.072000,1777
131.072500,1763
131.073000,1761
131.073500,1777
131.074000,1780
131.074500,1763
131.075000,1775
131.075500,1778
131.076000,1769
131.076500,1761
131.077000,1777
131.077500,1769
131.078000,1764
131.078500,1777
131.079000,1782
131.079500,1763
131.080000,1774
131.080500,1772
131.081000,1762
131.081500,1758
131.082000,1775
131.082500,1780
131.083000,1757
131.083500,1775
131.084000,1779
131.084500,1763
131.085000,1756
131.085500,1779
131.086000,1768
131.086500,1759
131.087000,1775
131.087500,1777
131.088000,1761
131.088500,1763
131.089000,1778
131.089500,1765
131.090000,1758
131.090500,1777
131.091000,1757
131.091500,1760
131.092000,1771
131.092500,1777
131.093000,1760
131.093500,1757
131.094000,1775
131.094500,1766
131.095000,1757
131.095500,1775
131.096000,1781
131.096500,1758
131.097000,1774
131.097500,1777
131.098000,1763
131.098500,1757
131.099000,1776
131.099500,1769
131.100000,1759
131.100500,1777
131.101000,1779
131.101500,1764
131.102000,1759
131.102500,1775
131.103000,1766
131.103500,1760
131.104000,1778
131.104500,1778
131.105000,1757
131.105500,1773
131.106000,1774
131.106500,1759
131.107000,1755
131.107500,1776
131.108000,1769
131.108500,1761
131.109000,1773
131.109500,1777
131.110000,1762
131.110500,1774
131.111000,1778
131.111500,1768
131.112000,1759
131.112500,1777
131.113000,1780
131.113500,1764
131.114000,1771
131.114500,1779
131.115000,1765
131.115500,1757
131.116000,1775
131.116500,1768
131.117000,1761
131.117500,1773
131.118000,1777
131.118500,1762
131.119000,1789
131.119500,1776
131.120000,1763
131.120500,1757
131.121000,1775
131.121500,1778
131.122000,1757
131.122500,1775
131.123000,1777
131.123500,1763
131.124000,1760
131.124500,1777
131.125000,1765
131.125500,1758
131.126000,1777
131.126500,1782
131.127000,1760
131.127500,1773
131.128000,1777
131.128500,1763
131.129000,1760
131.129500,1773
131.130000,1763
131.130500,1759
131.131000,1775
131.131500,1781
131.132000,1763
131.132500,1757
131.133000,1775
131.133500,1765
131.134000,1755
131.134500,1771
131.135000,1776
131.135500,1757
131.136000,1770
131.136500,1775
131.137000,1762
131.137500,1756
131.138000,1777
131.138500,1768
131.139000,1762
131.139500,1776
131.140000,1784
131.140500,1766
131.141000,1781
131.141500,1781
131.142000,1771
131.142500,1766
131.143000,1779
131.143500,1761
131.144000,1763
131.144500,1777
131.145000,1787
131.145500,1767
131.146000,1757
131.146500,1772
131.147000,1759
131.147500,1753
131.148000,1773
131.148500,1780
131.149000,1759
131.149500,1768
131.150000,1773
131.150500,1760
131.151000,1758
131.151500,1775
131.152000,1769
131.152500,1764
131.153000,1775
131.153500,1781
131.154000,1765
131.154500,1763
131.155000,1777
131.155500,1765
131.156000,1762
131.156500,1774
131.157000,1776
131.157500,1753
131.158000,1768
131.158500,1780
131.159000,1761
131.159500,1757
131.160000,1772
131.160500,1765
131.161000,1759
131.161500,1773
131.162000,1780
131.162500,1763
131.163000,1781
131.163500,1778
131.164000,1763
131.164500,1760
131.165000,1779
131.165500,1759
131.166000,1761
131.166500,1771
131.167000,1780
131.167500,1763
131.168000,1757
131.168500,1778
131.169000,1768
131.169500,1758
131.170000,1775
131.170500,1779
131.171000,1762
131.171500,1777
131.172000,1781
131.172500,1764
131.173000,1759
131.173500,1775
131.174000,1770
131.174500,1759
131.175000,1771
131.175500,1777
131.176000,1761
131.176500,1769
131.177000,1775
131.177500,1768
131.178000,1763
131.178500,1777
131.179000,1783
131.179500,1763
131.180000,1771
131.180500,1781
131.181000,1765
131.181500,1759
131.182000,1776
131.182500,1763
131.183000,1756
131.183500,1770
131.184000,1778
131.184500,1761
131.185000,1780
131.185500,1776
131.186000,1764
131.186500,1759
131.187000,1775
131.187500,1782
131.188000,1756
131.188500,1775
131.189000,1776
131.189500,1764
131.190000,1754
131.190500,1774
131.191000,1768
131.191500,1761
131.192000,1773
131.192500,1778
131.193000,1759
131.193500,1781
131.194000,1781
131.194500,1765
131.195000,1758
131.195500,1776
131.196000,1772
131.196500,1762
131.197000,1775
131.197500,1777
131.198000,1763
131.198500,1757
131.199000,1780
131.199500,1769
131.200000,1758
131.200500,1776
131.201000,1779
131.201500,1763
131.202000,1776
131.202500,1781
131.203000,1765
131.203500,1759
131.204000,1775
131.204500,1770
131.205000,1755
131.205500,1774
131.206000,1780
131.206500,1764
131.207000,1758
131.207500,1774
131.208000,1764
131.208500,1758
131.209000,1774
131.209500,1780
131.210000,1759
131.210500,1770
131.211000,1775
131.211500,1763
131.212000,1755
131.212500,1775
131.213000,1767
131.213500,1759
131.214000,1772
131.214500,1777
131.215000,1761
131.215500,1784
131.216000,1775
131.216500,1764
131.217000,1756
131.217500,1777
131.218000,1765
131.218500,1760
131.219000,1775
131.219500,1779
131.220000,1761
131.220500,1755
131.221000,1777
131.221500,1765
131.222000,1761
131.222500,1773
131.223000,1781
131.223500,1759
131.224000,1772
131.224500,1774
131.225000,1763
131.225500,1759
131.226000,1775
131.226500,1769
131.227000,1760
131.227500,1775
131.228000,1781
131.228500,1765
131.229000,1781
131.229500,1780
131.230000,1764
131.230500,1757
131.231000,1775
131.231500,1775
131.232000,1761
131.232500,1773
131.233000,1777
131.233500,1765
131.234000,1757
131.234500,1774
131.235000,1765
131.235500,1757
131.236000,1775
131.236500,1780
131.237000,1765
131.237500,1769
131.238000,1777
131.238500,1763
131.239000,1759
131.239500,1778
131.240000,1768
131.240500,1760
131.241000,1777
131.241500,1782
131.242000,1762
131.242500,1785
131.243000,1778
131.243500,1766
131.244000,1759
131.244500,1778
131.245000,1773
131.245500,1759
131.246000,1773
131.246500,1779
131.247000,1761
131.247500,1756
131.248000,1776
131.248500,1768
131.249000,1761
131.249500,1774
131.250000,1779
131.250500,1759
131.251000,1773
131.251500,1776
131.252000,1767
131.252500,1759
131.253000,1777
131.253500,1772
131.254000,1758
131.254500,1773
131.255000,1781
131.255500,1761
131.256000,1757
131.256500,1775
131.257000,1765
131.257500,1759
131.258000,1776
131.258500,1779
131.259000,1760
131.259500,1773
131.260000,1777
131.260500,1759
131.261000,1758
131.261500,1775
131.262000,1766
131.262500,1759
131.263000,1778
131.263500,1780
131.264000,1762
131.264500,1762
131.265000,1780
131.265500,1767
131.266000,1765
131.266500,1780
131.267000,1777
131.267500,1761
131.268000,1777
131.268500,1782
131.269000,1762
131.269500,1752
131.270000,1777
131.270500,1762
131.271000,1756
131.271500,1769
131.272000,1778
131.272500,1759
131.273000,1773
131.273500,1777
131.274000,1762
131.274500,1757
131.275000,1773
131.275500,1763
131.276000,1759
131.276500,1773
131.277000,1777
131.277500,1762
131.278000,1759
131.278500,1777
131.279000,1767
131.279500,1759
131.280000,1775
131.280500,1780
131.281000,1762
131.281500,1772
131.282000,1777
131.282500,1762
131.283000,1757
131.283500,1777
131.284000,1766
131.284500,1760
131.285000,1777
131.285500,1780
131.286000,1763
131.286500,1786
131.287000,1776
131.287500,1765
131.288000,1757
131.288500,1775
131.289000,1779
131.289500,1758
131.290000,1775
131.290500,1777
131.291000,1762
131.291500,1757
131.292000,1775
131.292500,1766
131.293000,1760
131.293500,1776
131.294000,1781
131.294500,1761
131.295000,1763
131.295500,1777
131.296000,1764
131.296500,1757
131.297000,1773
131.297500,1753
131.298000,1759
131.298500,1772
131.299000,1781
131.299500,1763
131.300000,1754
131.300500,1777
131.301000,1768
131.301500,1761
131.302000,1779
131.302500,1780
131.303000,1762
131.303500,1763
131.304000,1777
131.304500,1763
131.305000,1757
131.305500,1775
131.306000,1759
131.306500,1761
131.307000,1774
131.307500,1780
131.308000,1762
131.308500,1758
131.309000,1777
131.309500,1767
131.310000,1757
131.310500,1777
131.311000,1780
131.311500,1760
131.312000,1773
131.312500,1777
131.313000,1765
131.313500,1759
131.314000,1775
131.314500,1769
131.315000,1761
131.315500,1775
131.316000,1781
131.316500,1765
131.317000,1759
131.317500,1775
131.318000,1767
131.318500,1760
131.319000,1775
131.319500,1780
131.320000,1766
131.320500,1774
131.321000,1782
131.321500,1768
131.322000,1763
131.322500,1778
131.323000,1767
131.323500,1761
131.324000,1777
131.324500,1779
131.325000,1755
131.325500,1780
131.326000,1768
131.326500,1759
131.327000,1756
131.327500,1774
131.328000,1781
131.328500,1759
131.329000,1773
131.329500,1780
131.330000,1765
131.330500,1760
131.331000,1779
131.331500,1767
131.332000,1758
131.332500,1774
131.333000,1779
131.333500,1764
131.334000,1766
131.334500,1781
131.335000,1761
131.335500,1756
131.336000,1774
131.336500,1765
131.337000,1760
131.337500,1772
131.338000,1779
131.338500,1761
131.339000,1767
131.339500,1775
131.340000,1766
131.340500,1758
131.341000,1775
131.341500,1775
131.342000,1758
131.342500,1769
131.343000,1777
131.343500,1763
131.344000,1756
131.344500,1777
131.345000,1765
131.345500,1759
131.346000,1775
131.346500,1777
131.347000,1759
131.347500,1762
131.348000,1777
131.348500,1764
131.349000,1758
131.349500,1775
131.350000,1755
131.350500,1758
131.351000,1773
131.351500,1778
131.352000,1763
131.352500,1757
131.353000,1775
131.353500,1766
131.354000,1759
131.354500,1777
131.355000,1783
131.355500,1762
131.356000,1776
131.356500,1781
131.357000,1765
131.357500,1762
131.358000,1779
131.358500,1774
131.359000,1762
131.359500,1773
131.360000,1783
131.360500,1760
131.361000,1765
131.361500,1776
131.362000,1765
131.362500,1759
131.363000,1773
131.363500,1779
131.364000,1762
131.364500,1772
131.365000,1777
131.365500,1763
131.366000,1759
131.366500,1776
131.367000,1768
131.367500,1763
131.368000,1779
131.368500,1782
131.369000,1766
131.369500,1766
131.370000,1778
131.370500,1765
131.371000,1752
131.371500,1766
131.372000,1749
131.372500,1752
131.373000,1769
131.373500,1776
131.374000,1760
131.374500,1757
131.375000,1775
131.375500,1763
131.376000,1759
131.376500,1773
131.377000,1779
131.377500,1759
131.378000,1777
131.378500,1776
131.379000,1765
131.379500,1757
131.380000,1777
131.380500,1768
131.381000,1761
131.381500,1771
131.382000,1780
131.382500,1763
131.383000,1757
131.383500,1778
131.384000,1767
131.384500,1763
131.385000,1775
131.385500,1780
131.386000,1763
131.386500,1774
131.387000,1778
131.387500,1764
131.388000,1757
131.388500,1777
131.389000,1770
131.389500,1763
131.390000,1773
131.390500,1780
131.391000,1764
131.391500,1784
131.392000,1778
131.392500,1767
131.393000,1764
131.393500,1777
131.394000,1783
131.394500,1759
131.395000,1776
131.395500,1778
131.396000,1765
131.396500,1760
131.397000,1776
131.397500,1767
131.398000,1761
131.398500,1776
131.399000,1780
131.399500,1763
131.400000,1766
131.400500,1777
131.401000,1765
131.401500,1757
131.402000,1775
131.402500,1764
131.403000,1761
131.403500,1775
131.404000,1777
131.404500,1759
131.405000,1753
131.405500,1775
131.406000,1766
131.406500,1758
131.407000,1772
131.407500,1783
131.408000,1764
131.408500,1772
131.409000,1779
131.409500,1764
131.410000,1758
131.410500,1775
131.411000,1765
131.411500,1762
131.412000,1776
131.412500,1781
131.413000,1763
131.413500,1773
131.414000,1779
131.414500,1766
131.415000,1757
131.415500,1775
131.416000,1773
131.416500,1763
131.417000,1772
131.417500,1779
131.418000,1763
131.418500,1782
131.419000,1780
131.419500,1765
131.420000,1759
131.420500,1775
131.421000,1781
131.421500,1759
131.422000,1775
131.422500,1777
131.423000,1761
131.423500,1755
131.424000,1775
131.424500,1765
131.425000,1758
131.425500,1772
131.426000,1780
131.426500,1759
131.427000,1768
131.427500,1780
131.428000,1764
131.428500,1762
131.429000,1777
131.429500,1765
131.430000,1759
131.430500,1774
131.431000,1782
131.431500,1764
131.432000,1758
131.432500,1777
131.433000,1765
131.433500,1759
131.434000,1776
131.434500,1781
131.435000,1759
131.435500,1773
131.436000,1778
131.436500,1763
131.437000,1757
131.437500,1776
131.438000,1771
131.438500,1759
131.439000,1773
131.439500,1780
131.440000,1762
131.440500,1788
131.441000,1777
131.441500,1764
131.442000,1757
131.442500,1776
131.443000,1784
131.443500,1758
131.444000,1777
131.444500,1779
131.445000,1765
131.445500,1758
131.446000,1780
131.446500,1766
131.447000,1759
131.447500,1775
131.448000,1781
131.448500,1762
131.449000,1777
131.449500,1778
131.450000,1764
131.450500,1757
131.451000,1777
131.451500,1769
131.452000,1761
131.452500,1774
131.453000,1780
131.453500,1762
131.454000,1788
131.454500,1777
131.455000,1764
131.455500,1759
131.456000,1776
131.456500,1781
131.457000,1759
131.457500,1775
131.458000,1779
131.458500,1763
131.459000,1757
131.459500,1777
131.460000,1767
131.460500,1759
131.461000,1777
131.461500,1781
131.462000,1763
131.462500,1775
131.463000,1779
131.463500,1763
131.464000,1761
131.464500,1777
131.465000,1769
131.465500,1760
131.466000,1775
131.466500,1779
131.467000,1763
131.467500,1770
131.468000,1777
131.468500,1765
131.469000,1760
131.469500,1777
131.470000,1788
131.470500,1759
131.471000,1777
131.471500,1780
131.472000,1765
131.472500,1760
131.473000,1773
131.473500,1768
131.474000,1760
131.474500,1775
131.475000,1781
131.475500,1763
131.476000,1765
131.476500,1781
131.477000,1768
131.477500,1764
131.478000,1779
131.478500,1771
131.479000,1765
131.479500,1773
131.480000,1774
131.480500,1758
131.481000,1753
131.481500,1771
131.482000,1762
131.482500,1757
131.483000,1775
131.483500,1781
131.484000,1764
131.484500,1771
131.485000,1776
131.485500,1765
131.486000,1757
131.486500,1771
131.487000,1763
131.487500,1757
131.488000,1773
131.488500,1780
131.489000,1761
131.489500,1791
131.490000,1780
131.490500,1766
131.491000,1763
131.491500,1778
131.492000,1783
131.492500,1758
131.493000,1772
131.493500,1776
131.494000,1764
131.494500,1759
131.495000,1776
131.495500,1769
131.496000,1763
131.496500,1775
131.497000,1783
131.497500,1763
131.498000,1763
131.498500,1776
131.499000,1760
131.499500,1759
131.500000,1776
131.500500,1757
131.501000,1758
131.501500,1773
131.502000,1779
131.502500,1763
131.503000,1756
131.503500,1775
131.504000,1768
131.504500,1761
131.505000,1775
131.505500,1783
131.506000,1760
131.506500,1774
131.507000,1778
131.507500,1763
131.508000,1760
131.508500,1777
131.509000,1769
131.509500,1764
131.510000,1772
131.510500,1785
131.511000,1767
131.511500,1790
131.512000,1779
131.512500,1766
131.513000,1759
131.513500,1777
131.514000,1769
131.514500,1761
131.515000,1775
131.515500,1779
131.516000,1763
131.516500,1757
131.517000,1776
131.517500,1766
131.518000,1759
131.518500,1775
131.519000,1782
131.519500,1763
131.520000,1776
131.520500,1779
131.521000,1767
131.521500,1758
131.522000,1778
131.522500,1767
131.523000,1759
131.523500,1776
131.524000,1779
131.524500,1764
131.525000,1755
131.525500,1777
131.526000,1768
131.526500,1760
131.527000,1774
131.527500,1781
131.528000,1759
131.528500,1771
131.529000,1778
131.529500,1764
131.530000,1756
131.530500,1776
131.531000,1769
131.531500,1759
131.532000,1773
131.532500,1777
131.533000,1761
131.533500,1789
131.534000,1775
131.534500,1764
131.535000,1760
131.535500,1775
131.536000,1779
131.536500,1758
131.537000,1775
131.537500,1779
131.538000,1765
131.538500,1759
131.539000,1777
131.539500,1770
131.540000,1758
131.540500,1775
131.541000,1781
131.541500,1760
131.542000,1764
131.542500,1778
131.543000,1766
131.543500,1761
131.544000,1777
131.544500,1753
131.545000,1759
131.545500,1775
131.546000,1779
131.546500,1763
131.547000,1759
131.547500,1778
131.548000,1766
131.548500,1758
131.549000,1773
131.549500,1783
131.550000,1759
131.550500,1773
131.551000,1782
131.551500,1762
131.552000,1756
131.552500,1777
131.553000,1768
131.553500,1762
131.554000,1775
131.554500,1779
131.555000,1765
131.555500,1755
131.556000,1777
131.556500,1764
131.557000,1760
131.557500,1776
131.558000,1779
131.558500,1761
131.559000,1771
131.559500,1780
131.560000,1762
131.560500,1759
131.561000,1778
131.561500,1768
131.562000,1761
131.562500,1779
131.563000,1781
131.563500,1762
131.564000,1760
131.564500,1779
131.565000,1761
131.565500,1756
131.566000,1775
131.566500,1761
131.567000,1759
131.567500,1771
131.568000,1782
131.568500,1767
131.569000,1761
131.569500,1777
131.570000,1765
131.570500,1760
131.571000,1774
131.571500,1783
131.572000,1761
131.572500,1775
131.573000,1778
131.573500,1763
131.574000,1759
131.574500,1773
131.575000,1770
131.575500,1759
131.576000,1775
131.576500,1780
131.577000,1761
131.577500,1754
131.578000,1777
131.578500,1762
131.579000,1759
131.579500,1776
131.580000,1781
131.580500,1765
131.581000,1775
131.581500,1781
131.582000,1766
131.582500,1762
131.583000,1781
131.583500,1774
131.584000,1766
131.584500,1777
131.585000,1781
131.585500,1761
131.586000,1778
131.586500,1777
131.587000,1766
131.587500,1759
131.588000,1774
131.588500,1781
131.589000,1759
131.589500,1774
131.590000,1778
131.590500,1764
131.591000,1761
131.591500,1775
131.592000,1768
131.592500,1761
131.593000,1773
131.593500,1778
131.594000,1763
131.594500,1764
131.595000,1778
131.595500,1765
131.596000,1760
131.596500,1775
131.597000,1759
131.597500,1761
131.598000,1773
131.598500,1781
131.599000,1765
131.599500,1761
131.600000,1784
131.600500,1767
131.601000,1762
131.601500,1774
131.602000,1781
131.602500,1763
131.603000,1769
131.603500,1771
131.604000,1758
131.604500,1754
131.605000,1774
131.605500,1767
131.606000,1761
131.606500,1777
131.607000,1781
131.607500,1765
131.608000,1760
131.608500,1780
131.609000,1768
131.609500,1764
131.610000,1778
131.610500,1785
131.611000,1761
131.611500,1773
131.612000,1778
131.612500,1765
131.613000,1760
131.613500,1777
131.614000,1768
131.614500,1761
131.615000,1775
131.615500,1781
131.616000,1765
131.616500,1768
131.617000,1777
131.617500,1762
131.618000,1760
131.618500,1777
131.619000,1767
131.619500,1761
131.620000,1774
131.620500,1777
131.621000,1763
131.621500,1757
131.622000,1778
131.622500,1765
131.623000,1763
131.623500,1776
131.624000,1782
131.624500,1761
131.625000,1769
131.625500,1780
131.626000,1767
131.626500,1758
131.627000,1777
131.627500,1770
131.628000,1759
131.628500,1775
131.629000,1780
131.629500,1764
131.630000,1777
131.630500,1778
131.631000,1765
131.631500,1759
131.632000,1774
131.632500,1770
131.633000,1759
131.633500,1775
131.634000,1781
131.634500,1765
131.635000,1755
131.635500,1779
131.636000,1770
131.636500,1759
131.637000,1773
131.637500,1777
131.638000,1758
131.638500,1768
131.639000,1777
131.639500,1763
131.640000,1755
131.640500,1775
131.641000,1769
131.641500,1761
131.642000,1777
131.642500,1781
131.643000,1762
131.643500,1761
131.644000,1777
131.644500,1765
131.645000,1758
131.645500,1777
131.646000,1759
131.646500,1759
131.647000,1773
131.647500,1777
131.648000,1762
131.648500,1760
131.649000,1778
131.649500,1769
131.650000,1759
131.650500,1777
131.651000,1782
131.651500,1759
131.652000,1770
131.652500,1776
131.653000,1763
131.653500,1756
131.654000,1774
131.654500,1765
131.655000,1756
131.655500,1776
131.656000,1785
131.656500,1769
131.657000,1759
131.657500,1783
131.658000,1768
131.658500,1760
131.659000,1776
131.659500,1783
131.660000,1763
131.660500,1773
131.661000,1781
131.661500,1765
131.662000,1761
131.662500,1775
131.663000,1766
131.663500,1758
131.664000,1774
131.664500,1781
131.665000,1762
131.665500,1769
131.666000,1779
131.666500,1762
131.667000,1759
131.667500,1777
131.668000,1773
131.668500,1764
131.669000,1777
131.669500,1784
131.670000,1768
131.670500,1763
131.671000,1782
131.671500,1769
131.672000,1761
131.672500,1769
131.673000,1780
131.673500,1758
131.674000,1772
131.674500,1778
131.675000,1763
131.675500,1758
131.676000,1777
131.676500,1765
131.677000,1758
131.677500,1776
131.678000,1781
131.678500,1763
131.679000,1767
131.679500,1780
131.680000,1763
131.680500,1762
131.681000,1777
131.681500,1763
131.682000,1760
131.682500,1773
131.683000,1780
131.683500,1764
131.684000,1757
131.684500,1779
131.685000,1765
131.685500,1764
131.686000,1779
131.686500,1783
131.687000,1765
131.687500,1774
131.688000,1778
131.688500,1765
131.689000,1758
131.689500,1775
131.690000,1768
131.690500,1763
131.691000,1775
131.691500,1779
131.692000,1763
131.692500,1761
131.693000,1776
131.693500,1763
131.694000,1757
131.694500,1775
131.695000,1751
131.695500,1759
131.696000,1775
131.696500,1779
131.697000,1762
131.697500,1760
131.698000,1776
131.698500,1767
131.699000,1760
131.699500,1777
131.700000,1781
131.700500,1763
131.701000,1777
131.701500,1781
131.702000,1771
131.702500,1761
131.703000,1779
131.703500,1770
131.704000,1763
131.704500,1775
131.705000,1784
131.705500,1765
131.706000,1784
131.706500,1772
131.707000,1762
131.707500,1757
131.708000,1774
131.708500,1778
131.709000,1758
131.709500,1773
131.710000,1777
131.710500,1763
131.711000,1757
131.711500,1778
131.712000,1768
131.712500,1761
131.713000,1776
131.713500,1779
131.714000,1761
131.714500,1775
131.715000,1778
131.715500,1765
131.716000,1759
131.716500,1775
131.717000,1767
131.717500,1761
131.718000,1771
131.718500,1779
131.719000,1763
131.719500,1774
131.720000,1780
131.720500,1765
131.721000,1758
131.721500,1776
131.722000,1759
131.722500,1759
131.723000,1771
131.723500,1779
131.724000,1764
131.724500,1759
131.725000,1777
131.725500,1768
131.726000,1761
131.726500,1773
131.727000,1780
131.727500,1762
131.728000,1770
131.728500,1778
131.729000,1765
131.729500,1758
131.730000,1775
131.730500,1768
131.731000,1762
131.731500,1775
131.732000,1784
131.732500,1765
131.733000,1780
131.733500,1778
131.734000,1767
131.734500,1759
131.735000,1777
131.735500,1765
131.736000,1761
131.736500,1773
131.737000,1780
131.737500,1763
131.738000,1757
131.738500,1781
131.739000,1769
131.739500,1761
131.740000,1777
131.740500,1784
131.741000,1765
131.741500,1775
131.742000,1779
131.742500,1766
131.743000,1761
131.743500,1777
131.744000,1773
131.744500,1762
131.745000,1773
131.745500,1781
131.746000,1766
131.746500,1793
131.747000,1778
131.747500,1765
131.748000,1759
131.748500,1778
131.749000,1779
131.749500,1760
131.750000,1776
131.750500,1778
131.751000,1766
131.751500,1760
131.752000,1777
131.752500,1767
131.753000,1763
131.753500,1774
131.754000,1782
131.754500,1764
131.755000,1769
131.755500,1781
131.756000,1767
131.756500,1758
131.757000,1773
131.757500,1757
131.758000,1755
131.758500,1770
131.759000,1775
131.759500,1761
131.760000,1758
131.760500,1777
131.761000,1767
131.761500,1757
131.762000,1775
131.762500,1779
131.763000,1761
131.763500,1771
131.764000,1779
131.764500,1761
131.765000,1757
131.765500,1775
131.766000,1767
131.766500,1759
131.767000,1775
131.767500,1778
131.768000,1761
131.768500,1780
131.769000,1774
131.769500,1765
131.770000,1758
131.770500,1777
131.771000,1755
131.771500,1760
131.772000,1775
131.772500,1779
131.773000,1765
131.773500,1760
131.774000,1777
131.774500,1767
131.775000,1758
131.775500,1777
131.776000,1783
131.776500,1760
131.777000,1775
131.777500,1779
131.778000,1767
131.778500,1760
131.779000,1780
131.779500,1771
131.780000,1763
131.780500,1775
131.781000,1780
131.781500,1763
131.782000,1759
131.782500,1778
131.783000,1766
131.783500,1761
131.784000,1778
131.784500,1782
131.785000,1763
131.785500,1773
131.786000,1783
131.786500,1768
131.787000,1760
131.787500,1778
131.788000,1765
131.788500,1759
131.789000,1771
131.789500,1777
131.790000,1759
131.790500,1786
131.791000,1780
131.791500,1763
131.792000,1758
131.792500,1775
131.793000,1777
131.793500,1759
131.794000,1771
131.794500,1775
131.795000,1762
131.795500,1756
131.796000,1777
131.796500,1767
131.797000,1757
131.797500,1773
131.798000,1779
131.798500,1761
131.799000,1763
131.799500,1778
131.800000,1764
131.800500,1759
131.801000,1776
131.801500,1771
131.802000,1763
131.802500,1778
131.803000,1783
131.803500,1768
131.804000,1765
131.804500,1784
131.805000,1776
131.805500,1764
131.806000,1779
131.806500,1785
131.807000,1762
131.807500,1769
131.808000,1771
131.808500,1753
131.809000,1750
131.809500,1769
131.810000,1762
131.810500,1759
131.811000,1774
131.811500,1779
131.812000,1763
131.812500,1786
131.813000,1780
131.813500,1767
131.814000,1762
131.814500,1778
131.815000,1783
131.815500,1759
131.816000,1776
131.816500,1779
131.817000,1765
131.817500,1761
131.818000,1775
131.818500,1768
131.819000,1763
131.819500,1775
131.820000,1783
131.820500,1763
131.821000,1773
131.821500,1777
131.822000,1763
131.822500,1757
131.823000,1775
131.823500,1780
131.824000,1761
131.824500,1774
131.825000,1778
131.825500,1764
131.826000,1760
131.826500,1775
131.827000,1766
131.827500,1761
131.828000,1775
131.828500,1783
131.829000,1761
131.829500,1785
131.830000,1775
131.830500,1764
131.831000,1758
131.831500,1776
131.832000,1781
131.832500,1759
131.833000,1774
131.833500,1778
131.834000,1762
131.834500,1758
131.835000,1777
131.835500,1768
131.836000,1760
131.836500,1776
131.837000,1780
131.837500,1763
131.838000,1763
131.838500,1780
131.839000,1765
131.839500,1758
131.840000,1777
131.840500,1762
131.841000,1759
131.841500,1774
131.842000,1783
131.842500,1763
131.843000,1758
131.843500,1778
131.844000,1767
131.844500,1761
131.845000,1773
131.845500,1779
131.846000,1764
131.846500,1763
131.847000,1777
131.847500,1764
131.848000,1761
131.848500,1777
131.849000,1763
131.849500,1761
131.850000,1772
131.850500,1781
131.851000,1761
131.851500,1758
131.852000,1776
131.852500,1764
131.853000,1759
131.853500,1773
131.854000,1781
131.854500,1763
131.855000,1777
131.855500,1778
131.856000,1764
131.856500,1759
131.857000,1777
131.857500,1768
131.858000,1761
131.858500,1774
131.859000,1779
131.859500,1765
131.860000,1757
131.860500,1777
131.861000,1765
131.861500,1759
131.862000,1776
131.862500,1781
131.863000,1763
131.863500,1770
131.864000,1783
131.864500,1765
131.865000,1765
131.865500,1780
131.866000,1773
131.866500,1765
131.867000,1777
131.867500,1781
131.868000,1759
131.868500,1782
131.869000,1773
131.869500,1762
131.870000,1758
131.870500,1772
131.871000,1779
131.871500,1757
131.872000,1773
131.872500,1777
131.873000,1763
131.873500,1759
131.874000,1777
131.874500,1766
131.875000,1759
131.875500,1775
131.876000,1780
131.876500,1761
131.877000,1759
131.877500,1775
131.878000,1759
131.878500,1757
131.879000,1777
131.879500,1766
131.880000,1757
131.880500,1773
131.881000,1781
131.881500,1765
131.882000,1759
131.882500,1781
131.883000,1769
131.883500,1761
131.884000,1776
131.884500,1783
131.885000,1765
131.885500,1765
131.886000,1781
131.886500,1766
131.887000,1761
131.887500,1779
131.888000,1758
131.888500,1762
131.889000,1777
131.889500,1780
131.890000,1765
131.890500,1757
131.891000,1778
131.891500,1769
131.892000,1765
131.892500,1777
131.893000,1781
131.893500,1763
131.894000,1771
131.894500,1777
131.895000,1764
131.895500,1757
131.896000,1776
131.896500,1761
131.897000,1758
131.897500,1772
131.898000,1778
131.898500,1762
131.899000,1757
131.899500,1775
131.900000,1765
131.900500,1760
131.901000,1775
131.901500,1780
131.902000,1765
131.902500,1773
131.903000,1776
131.903500,1758
131.904000,1754
131.904500,1773
131.905000,1765
131.905500,1759
131.906000,1776
131.906500,1781
131.907000,1765
131.907500,1757
131.908000,1779
131.908500,1768
131.909000,1763
131.909500,1777
131.910000,1780
131.910500,1764
131.911000,1772
131.911500,1780
131.912000,1765
131.912500,1758
131.913000,1776
131.913500,1766
131.914000,1760
131.914500,1772
131.915000,1779
131.915500,1763
131.916000,1770
131.916500,1777
131.917000,1765
131.917500,1758
131.918000,1775
131.918500,1760
131.919000,1758
131.919500,1773
131.920000,1776
131.920500,1763
131.921000,1759
131.921500,1778
131.922000,1767
131.922500,1760
131.923000,1775
131.923500,1779
131.924000,1763
131.924500,1769
131.925000,1781
131.925500,1765
131.926000,1761
131.926500,1777
131.927000,1768
131.927500,1760
131.928000,1773
131.928500,1780
131.929000,1763
131.929500,1759
131.930000,1778
131.930500,1767
131.931000,1762
131.931500,1775
131.932000,1781
131.932500,1763
131.933000,1771
131.933500,1780
131.934000,1761
131.934500,1755
131.935000,1775
131.935500,1765
131.936000,1759
131.936500,1773
131.937000,1781
131.937500,1764
131.938000,1787
131.938500,1778
131.939000,1765
131.939500,1761
131.940000,1776
131.940500,1782
131.941000,1761
131.941500,1775
131.942000,1779
131.942500,1765
131.943000,1758
131.943500,1779
131.944000,1767
131.944500,1761
131.945000,1776
131.945500,1779
131.946000,1764
131.946500,1773
131.947000,1778
131.947500,1765
131.948000,1760
131.948500,1777
131.949000,1768
131.949500,1762
131.950000,1773
131.950500,1778
131.951000,1763
131.951500,1756
131.952000,1776
131.952500,1768
131.953000,1758
131.953500,1775
131.954000,1780
131.954500,1761
131.955000,1771
131.955500,1775
131.956000,1765
131.956500,1759
131.957000,1777
131.957500,1769
131.958000,1758
131.958500,1775
131.959000,1777
131.959500,1763
131.960000,1757
131.960500,1774
131.961000,1765
131.961500,1759
131.962000,1773
131.962500,1781
131.963000,1763
131.963500,1773
131.964000,1780
131.964500,1768
131.965000,1764
131.965500,1781
131.966000,1772
131.966500,1763
131.967000,1777
131.967500,1781
131.968000,1766
131.968500,1783
131.969000,1780
131.969500,1769
131.970000,1763
131.970500,1777
131.971000,1784
131.971500,1763
131.972000,1775
131.972500,1781
131.973000,1764
131.973500,1755
131.974000,1769
131.974500,1763
131.975000,1760
131.975500,1772
131.976000,1777
131.976500,1761
131.977000,1761
131.977500,1775
131.978000,1761
131.978500,1757
131.979000,1776
131.979500,1764
131.980000,1758
131.980500,1773
131.981000,1780
131.981500,1763
131.982000,1763
131.982500,1777
131.983000,1766
131.983500,1760
131.984000,1775
131.984500,1783
131.985000,1761
131.985500,1773
131.986000,1779
131.986500,1761
131.987000,1758
131.987500,1775
131.988000,1766
131.988500,1761
131.989000,1776
131.989500,1781
131.990000,1761
131.990500,1760
131.991000,1777
131.991500,1762
131.992000,1759
131.992500,1775
131.993000,1765
131.993500,1758
131.994000,1775
131.994500,1781
131.995000,1764
131.995500,1776
131.996000,1781
131.996500,1765
131.997000,1759
131.997500,1777
131.998000,1783
131.998500,1762
131.999000,1775
131.999500,1780
132.000000,1768
132.000500,1759
132.001000,1781
132.001500,1768
132.002000,1761
132.002500,1775
132.003000,1777
132.003500,1763
132.004000,1762
132.004500,1781
132.005000,1763
132.005500,1758
132.006000,1779
132.006500,1760
132.007000,1758
132.007500,1774
132.008000,1779
132.008500,1763
132.009000,1758
132.009500,1777
132.010000,1764
132.010500,1758
132.011000,1777
132.011500,1779
132.012000,1761
132.012500,1772
132.013000,1777
132.013500,1764
132.014000,1758
132.014500,1775
132.015000,1765
132.015500,1759
132.016000,1774
132.016500,1781
132.017000,1765
132.017500,1764
132.018000,1781
132.018500,1770
132.019000,1763
132.019500,1781
132.020000,1759
132.020500,1760
132.021000,1771
132.021500,1772
132.022000,1758
132.022500,1756
132.023000,1777
132.023500,1765
132.024000,1757
132.024500,1773
132.025000,1782
132.025500,1762
132.026000,1777
132.026500,1779
132.027000,1765
132.027500,1757
132.028000,1776
132.028500,1768
132.029000,1760
132.029500,1774
132.030000,1785
132.030500,1763
132.031000,1759
132.031500,1777
132.032000,1768
132.032500,1760
132.033000,1777
132.033500,1783
132.034000,1763
132.034500,1772
132.035000,1779
132.035500,1765
132.036000,1760
132.036500,1779
132.037000,1768
132.037500,1759
132.038000,1768
132.038500,1774
132.039000,1758
132.039500,1771
132.040000,1775
132.040500,1765
132.041000,1758
132.041500,1778
132.042000,1786
132.042500,1763
132.043000,1775
132.043500,1778
132.044000,1766
132.044500,1760
132.045000,1778
132.045500,1771
132.046000,1765
132.046500,1774
132.047000,1780
132.047500,1763
132.048000,1783
132.048500,1779
132.049000,1768
132.049500,1761
132.050000,1778
132.050500,1784
132.051000,1761
132.051500,1773
132.052000,1776
132.052500,1765
132.053000,1757
132.053500,1774
132.054000,1766
132.054500,1761
132.055000,1769
132.055500,1777
132.056000,1759
132.056500,1763
132.057000,1773
132.057500,1761
132.058000,1759
132.058500,1776
132.059000,1760
132.059500,1761
132.060000,1773
132.060500,1780
132.061000,1769
132.061500,1758
132.062000,1779
132.062500,1765
132.063000,1760
132.063500,1775
132.064000,1781
132.064500,1761
132.065000,1776
132.065500,1779
132.066000,1765
132.066500,1761
132.067000,1777
132.067500,1771
132.068000,1763
132.068500,1776
132.069000,1780
132.069500,1763
132.070000,1781
132.070500,1777
132.071000,1767
132.071500,1759
132.072000,1775
132.072500,1778
132.073000,1758
132.073500,1773
132.074000,1781
132.074500,1763
132.075000,1753
132.075500,1777
132.076000,1767
132.076500,1762
132.077000,1777
132.077500,1779
132.078000,1763
132.078500,1768
132.079000,1775
132.079500,1768
132.080000,1756
132.080500,1775
132.081000,1782
132.081500,1756
132.082000,1774
132.082500,1782
132.083000,1764
132.083500,1760
132.084000,1779
132.084500,1771
132.085000,1760
132.085500,1777
132.086000,1781
132.086500,1764
132.087000,1762
132.087500,1775
132.088000,1764
132.088500,1761
132.089000,1778
132.089500,1765
132.090000,1758
132.090500,1773
132.091000,1781
132.091500,1762
132.092000,1758
132.092500,1776
132.093000,1766
132.093500,1761
132.094000,1775
132.094500,1779
132.095000,1761
132.095500,1773
132.096000,1778
132.096500,1765
132.097000,1763
132.097500,1777
132.098000,1766
132.098500,1762
132.099000,1775
132.099500,1781
132.100000,1763
132.100500,1758
132.101000,1777
132.101500,1766
132.102000,1760
132.102500,1777
132.103000,1781
132.103500,1764
132.104000,1777
132.104500,1779
132.105000,1763
132.105500,1758
132.106000,1777
132.106500,1764
132.107000,1758
132.107500,1770
132.108000,1777
132.108500,1765
132.109000,1755
132.109500,1773
132.110000,1765
132.110500,1758
132.111000,1774
132.111500,1776
132.112000,1761
132.112500,1774
132.113000,1781
132.113500,1766
132.114000,1757
132.114500,1775
132.115000,1775
132.115500,1761
132.116000,1776
132.116500,1780
132.117000,1764
132.117500,1759
132.118000,1777
132.118500,1765
132.119000,1759
132.119500,1775
132.120000,1782
132.120500,1759
132.121000,1779
132.121500,1776
132.122000,1765
132.122500,1757
132.123000,1774
132.123500,1770
132.124000,1762
132.124500,1775
132.125000,1782
132.125500,1763
132.126000,1758
132.126500,1779
132.127000,1768
132.127500,1763
132.128000,1777
132.128500,1785
132.129000,1767
132.129500,1769
132.130000,1785
132.130500,1767
132.131000,1763
132.131500,1781
132.132000,1764
132.132500,1761
132.133000,1771
132.133500,1773
132.134000,1759
132.134500,1754
132.135000,1778
132.135500,1767
132.136000,1760
132.136500,1773
132.137000,1779
132.137500,1760
132.138000,1774
132.138500,1778
132.139000,1765
132.139500,1753
132.140000,1772
132.140500,1761
132.141000,1760
132.141500,1771
132.142000,1779
132.142500,1764
132.143000,1759
132.143500,1777
132.144000,1767
132.144500,1760
132.145000,1773
132.145500,1780
132.146000,1763
132.146500,1773
132.147000,1780
132.147500,1765
132.148000,1760
132.148500,1777
132.149000,1768
132.149500,1761
132.150000,1774
132.150500,1781
132.151000,1763
132.151500,1764
132.152000,1777
132.152500,1763
132.153000,1759
132.153500,1775
132.154000,1783
132.154500,1761
132.155000,1771
132.155500,1781
132.156000,1768
132.156500,1759
132.157000,1779
132.157500,1771
132.158000,1761
132.158500,1776
132.159000,1784
132.159500,1764
132.160000,1782
132.160500,1777
132.161000,1763
132.161500,1758
132.162000,1775
132.162500,1777
132.163000,1758
132.163500,1770
132.164000,1778
132.164500,1761
132.165000,1760
132.165500,1775
132.166000,1768
132.166500,1763
132.167000,1776
132.167500,1783
132.168000,1766
132.168500,1785
132.169000,1781
132.169500,1766
132.170000,1759
132.170500,1775
132.171000,1784
132.171500,1759
132.172000,1773
132.172500,1779
132.173000,1764
132.173500,1759
132.174000,1776
132.174500,1766
132.175000,1756
132.175500,1771
132.176000,1777
132.176500,1759
132.177000,1771
132.177500,1774
132.178000,1763
132.178500,1759
132.179000,1777
132.179500,1758
132.180000,1759
132.180500,1773
132.181000,1779
132.181500,1766
132.182000,1761
132.182500,1781
132.183000,1772
132.183500,1764
132.184000,1779
132.184500,1783
132.185000,1766
132.185500,1762
132.186000,1774
132.186500,1761
132.187000,1757
132.187500,1773
132.188000,1756
132.188500,1757
132.189000,1771
132.189500,1778
132.190000,1759
132.190500,1758
132.191000,1778
132.191500,1765
132.192000,1759
132.192500,1772
132.193000,1779
132.193500,1763
132.194000,1774
132.194500,1777
132.195000,1765
132.195500,1758
132.196000,1779
132.196500,1765
132.197000,1761
132.197500,1773
132.198000,1779
132.198500,1762
132.199000,1759
132.199500,1777
132.200000,1765
132.200500,1761
132.201000,1778
132.201500,1780
132.202000,1762
132.202500,1775
132.203000,1777
132.203500,1765
132.204000,1758
132.204500,1772
132.205000,1769
132.205500,1759
132.206000,1771
132.206500,1777
132.207000,1765
132.207500,1756
132.208000,1778
132.208500,1768
132.209000,1764
132.209500,1781
132.210000,1784
132.210500,1761
132.211000,1781
132.211500,1778
132.212000,1764
132.212500,1756
132.213000,1777
132.213500,1766
132.214000,1760
132.214500,1774
132.215000,1783
132.215500,1762
132.216000,1771
132.216500,1776
132.217000,1765
132.217500,1761
132.218000,1775
132.218500,1780
132.219000,1761
132.219500,1772
132.220000,1783
132.220500,1763
132.221000,1761
132.221500,1775
132.222000,1769
132.222500,1762
132.223000,1773
132.223500,1783
132.224000,1761
132.224500,1779
132.225000,1780
132.225500,1766
132.226000,1760
132.226500,1777
132.227000,1756
132.227500,1761
132.228000,1775
132.228500,1778
132.229000,1763
132.229500,1758
132.230000,1777
132.230500,1768
132.231000,1762
132.231500,1778
132.232000,1781
132.232500,1765
132.233000,1773
132.233500,1776
132.234000,1761
132.234500,1754
132.235000,1777
132.235500,1769
132.236000,1763
132.236500,1775
132.237000,1780
132.237500,1763
132.238000,1757
132.238500,1777
132.239000,1768
132.239500,1757
132.240000,1775
132.240500,1780
132.241000,1765
132.241500,1772
132.242000,1780
132.242500,1768
132.243000,1761
132.243500,1774
132.244000,1769
132.244500,1761
132.245000,1774
132.245500,1778
132.246000,1765
132.246500,1764
132.247000,1780
132.247500,1764
132.248000,1760
132.248500,1778
132.249000,1754
132.249500,1761
132.250000,1771
132.250500,1781
132.251000,1766
132.251500,1757
132.252000,1778
132.252500,1768
132.253000,1759
132.253500,1775
132.254000,1779
132.254500,1763
132.255000,1772
132.255500,1778
132.256000,1767
132.256500,1761
132.257000,1779
132.257500,1775
132.258000,1763
132.258500,1777
132.259000,1780
132.259500,1761
132.260000,1749
132.260500,1775
132.261000,1763
132.261500,1761
132.262000,1776
132.262500,1782
132.263000,1759
132.263500,1773
132.264000,1776
132.264500,1763
132.265000,1756
132.265500,1775
132.266000,1767
132.266500,1757
132.267000,1772
132.267500,1779
132.268000,1762
132.268500,1773
132.269000,1780
132.269500,1767
132.270000,1762
132.270500,1778
132.271000,1771
132.271500,1760
132.272000,1771
132.272500,1777
132.273000,1763
132.273500,1787
132.274000,1777
132.274500,1763
132.275000,1759
132.275500,1773
132.276000,1781
132.276500,1756
132.277000,1775
132.277500,1779
132.278000,1763
132.278500,1759
132.279000,1777
132.279500,1771
132.280000,1759
132.280500,1777
132.281000,1782
132.281500,1761
132.282000,1765
132.282500,1777
132.283000,1765
132.283500,1761
132.284000,1775
132.284500,1760
132.285000,1759
132.285500,1773
132.286000,1781
132.286500,1765
132.287000,1759
132.287500,1779
132.288000,1769
132.288500,1761
132.289000,1775
132.289500,1780
132.290000,1765
132.290500,1771
132.291000,1775
132.291500,1761
132.292000,1760
132.292500,1775
132.293000,1769
132.293500,1759
132.294000,1771
132.294500,1780
132.295000,1761
132.295500,1789
132.296000,1777
132.296500,1766
132.297000,1758
132.297500,1777
132.298000,1782
132.298500,1760
132.299000,1774
132.299500,1779
132.300000,1761
132.300500,1757
132.301000,1780
132.301500,1765
132.302000,1762
132.302500,1773
132.303000,1782
132.303500,1760
132.304000,1777
132.304500,1776
132.305000,1761
132.305500,1757
132.306000,1780
132.306500,1764
132.307000,1762
132.307500,1774
132.308000,1781
132.308500,1764
132.309000,1792
132.309500,1779
132.310000,1764
132.310500,1757
132.311000,1776
132.311500,1778
132.312000,1759
132.312500,1771
132.313000,1779
132.313500,1762
132.314000,1757
132.314500,1777
132.315000,1764
132.315500,1761
132.316000,1777
132.316500,1785
132.317000,1766
132.317500,1778
132.318000,1778
132.318500,1768
132.319000,1761
132.319500,1778
132.320000,1773
132.320500,1759
132.321000,1777
132.321500,1783
132.322000,1763
132.322500,1757
132.323000,1777
132.323500,1767
132.324000,1761
132.324500,1775
132.325000,1781
132.325500,1760
132.326000,1771
132.326500,1777
132.327000,1764
132.327500,1759
132.328000,1781
132.328500,1769
132.329000,1764
132.329500,1775
132.330000,1777
132.330500,1761
132.331000,1780
132.331500,1777
132.332000,1764
132.332500,1759
132.333000,1775
132.333500,1775
132.334000,1758
132.334500,1771
132.335000,1780
132.335500,1762
132.336000,1759
132.336500,1775
132.337000,1766
132.337500,1759
132.338000,1773
132.338500,1781
132.339000,1765
132.339500,1775
132.340000,1778
132.340500,1765
132.341000,1760
132.341500,1775
132.342000,1771
132.342500,1759
132.343000,1772
132.343500,1779
132.344000,1763
132.344500,1781
132.345000,1773
132.345500,1764
132.346000,1759
132.346500,1775
132.347000,1779
132.347500,1757
132.348000,1772
132.348500,1777
132.349000,1764
132.349500,1758
132.350000,1776
132.350500,1768
132.351000,1761
132.351500,1777
132.352000,1779
132.352500,1764
132.353000,1767
132.353500,1783
132.354000,1765
132.354500,1760
132.355000,1780
132.355500,1767
132.356000,1764
132.356500,1775
132.357000,1782
132.357500,1765
132.358000,1758
132.358500,1780
132.359000,1769
132.359500,1764
132.360000,1777
132.360500,1785
132.361000,1760
132.361500,1771
132.362000,1773
132.362500,1761
132.363000,1758
132.363500,1775
132.364000,1768
132.364500,1761
132.365000,1775
132.365500,1781
132.366000,1761
132.366500,1759
132.367000,1773
132.367500,1763
132.368000,1760
132.368500,1774
132.369000,1765
132.369500,1762
132.370000,1772
132.370500,1777
132.371000,1762
132.371500,1757
132.372000,1777
132.372500,1766
132.373000,1759
132.373500,1775
132.374000,1779
132.374500,1763
132.375000,1773
132.375500,1778
132.376000,1764
132.376500,1757
132.377000,1775
132.377500,1769
132.378000,1763
132.378500,1777
132.379000,1784
132.379500,1765
132.380000,1772
132.380500,1784
132.381000,1771
132.381500,1762
132.382000,1773
132.382500,1749
132.383000,1754
132.383500,1771
132.384000,1775
132.384500,1763
132.385000,1755
132.385500,1776
132.386000,1767
132.386500,1757
132.387000,1776
132.387500,1779
132.388000,1761
132.388500,1775
132.389000,1781
132.389500,1766
132.390000,1759
132.390500,1776
132.391000,1770
132.391500,1761
132.392000,1773
132.392500,1779
132.393000,1763
132.393500,1787
132.394000,1778
132.394500,1765
132.395000,1757
132.395500,1777
132.396000,1766
132.396500,1757
132.397000,1773
132.397500,1779
132.398000,1768
132.398500,1759
132.399000,1778
132.399500,1769
132.400000,1761
132.400500,1775
132.401000,1783
132.401500,1762
132.402000,1777
132.402500,1780
132.403000,1768
132.403500,1759
132.404000,1778
132.404500,1768
132.405000,1762
132.405500,1776
132.406000,1781
132.406500,1763
132.407000,1757
132.407500,1775
132.408000,1766
132.408500,1761
132.409000,1776
132.409500,1783
132.410000,1762
132.410500,1773
132.411000,1779
132.411500,1765
132.412000,1760
132.412500,1780
132.413000,1766
132.413500,1765
132.414000,1774
132.414500,1779
132.415000,1758
132.415500,1785
132.416000,1780
132.416500,1764
132.417000,1762
132.417500,1777
132.418000,1782
132.418500,1759
132.419000,1773
132.419500,1781
132.420000,1763
132.420500,1758
132.421000,1778
132.421500,1769
132.422000,1759
132.422500,1776
132.423000,1779
132.423500,1762
132.424000,1775
132.424500,1777
132.425000,1761
132.425500,1757
132.426000,1776
132.426500,1770
132.427000,1760
132.427500,1773
132.428000,1778
132.428500,1763
132.429000,1757
132.429500,1777
132.430000,1765
132.430500,1761
132.431000,1777
132.431500,1780
132.432000,1759
132.432500,1767
132.433000,1777
132.433500,1761
132.434000,1758
132.434500,1774
132.435000,1764
132.435500,1760
132.436000,1774
132.436500,1780
132.437000,1763
132.437500,1779
132.438000,1778
132.438500,1766
132.439000,1761
132.439500,1780
132.440000,1768
132.440500,1760
132.441000,1775
132.441500,1781
132.442000,1763
132.442500,1757
132.443000,1775
132.443500,1767
132.444000,1759
132.444500,1777
132.445000,1779
132.445500,1761
132.446000,1775
132.446500,1781
132.447000,1767
132.447500,1759
132.448000,1779
132.448500,1773
132.449000,1766
132.449500,1779
132.450000,1785
132.450500,1761
132.451000,1780
132.451500,1773
132.452000,1763
132.452500,1761
132.453000,1777
132.453500,1781
132.454000,1757
132.454500,1776
132.455000,1782
132.455500,1762
132.456000,1758
132.456500,1777
132.457000,1764
132.457500,1759
132.458000,1773
132.458500,1777
132.459000,1762
132.459500,1776
132.460000,1777
132.460500,1763
132.461000,1759
132.461500,1775
132.462000,1770
132.462500,1759
132.463000,1774
132.463500,1781
132.464000,1763
132.464500,1777
132.465000,1775
132.465500,1765
132.466000,1759
132.466500,1775
132.467000,1778
132.467500,1761
132.468000,1768
132.468500,1777
132.469000,1763
132.469500,1758
132.470000,1778
132.470500,1765
132.471000,1760
132.471500,1775
132.472000,1782
132.472500,1764
132.473000,1770
132.473500,1780
132.474000,1767
132.474500,1760
132.475000,1776
132.475500,1765
132.476000,1761
132.476500,1771
132.477000,1777
132.477500,1761
132.478000,1756
132.478500,1777
132.479000,1767
132.479500,1759
132.480000,1773
132.480500,1781
132.481000,1767
132.481500,1771
132.482000,1781
132.482500,1766
132.483000,1761
132.483500,1775
132.484000,1766
132.484500,1761
132.485000,1777
132.485500,1780
132.486000,1763
132.486500,1762
132.487000,1778
132.487500,1764
132.488000,1759
132.488500,1778
132.489000,1765
132.489500,1760
132.490000,1775
132.490500,1782
132.491000,1767
132.491500,1767
132.492000,1781
132.492500,1768
132.493000,1761
132.493500,1773
132.494000,1773
132.494500,1753
132.495000,1775
132.495500,1777
132.496000,1761
132.496500,1757
132.497000,1774
132.497500,1763
132.498000,1759
132.498500,1773
132.499000,1780
132.499500,1760
132.500000,1772
132.500500,1777
132.501000,1767
132.501500,1759
132.502000,1776
132.502500,1769
132.503000,1761
132.503500,1774
132.504000,1781
132.504500,1764
132.505000,1787
132.505500,1781
132.506000,1767
132.506500,1762
132.507000,1774
132.507500,1772
132.508000,1761
132.508500,1773
132.509000,1779
132.509500,1762
132.510000,1757
132.510500,1777
132.511000,1766
132.511500,1758
132.512000,1775
132.512500,1779
132.513000,1759
132.513500,1773
132.514000,1778
132.514500,1763
132.515000,1756
132.515500,1775
132.516000,1767
132.516500,1760
132.517000,1773
132.517500,1779
132.518000,1761
132.518500,1761
132.519000,1779
132.519500,1764
132.520000,1760
132.520500,1776
132.521000,1762
132.521500,1759
132.522000,1771
132.522500,1781
132.523000,1765
132.523500,1762
132.524000,1779
132.524500,1767
132.525000,1762
132.525500,1777
132.526000,1781
132.526500,1765
132.527000,1769
132.527500,1773
132.528000,1756
132.528500,1754
132.529000,1771
132.529500,1765
132.530000,1757
132.530500,1773
132.531000,1779
132.531500,1761
132.532000,1769
132.532500,1780
132.533000,1768
132.533500,1763
132.534000,1776
132.534500,1759
132.535000,1763
132.535500,1772
132.536000,1779
