# Subject: S01
# Trial: mvc(Subject S01)
# Notes: 
# Muscles: Ch1
# fs=2000 Hz, nch=1, vref=3.3 V
t_s,ch1_code
725.177500,1814
725.178000,1817
725.178500,1799
725.179000,1811
725.179500,1815
725.180000,1802
725.180500,1797
725.181000,1813
725.181500,1804
725.182000,1798
725.182500,1813
725.183000,1818
725.183500,1798
725.184000,1811
725.184500,1817
725.185000,1805
725.185500,1799
725.186000,1814
725.186500,1809
725.187000,1801
725.187500,1813
725.188000,1820
725.188500,1803
725.189000,1813
725.189500,1811
725.190000,1798
725.190500,1795
725.191000,1809
725.191500,1797
725.192000,1792
725.192500,1810
725.193000,1812
725.193500,1801
725.194000,1796
725.194500,1813
725.195000,1804
725.195500,1798
725.196000,1814
725.196500,1817
725.197000,1801
725.197500,1817
725.198000,1820
725.198500,1808
725.199000,1798
725.199500,1815
725.200000,1805
725.200500,1799
725.201000,1812
725.201500,1817
725.202000,1801
725.202500,1814
725.203000,1819
725.203500,1808
725.204000,1801
725.204500,1818
725.205000,1811
725.205500,1806
725.206000,1817
725.206500,1822
725.207000,1806
725.207500,1817
725.208000,1818
725.208500,1801
725.209000,1793
725.209500,1803
725.210000,1791
725.210500,1792
725.211000,1805
725.211500,1811
725.212000,1800
725.212500,1803
725.213000,1815
725.213500,1803
725.214000,1797
725.214500,1811
725.215000,1819
725.215500,1800
725.216000,1813
725.216500,1815
725.217000,1802
725.217500,1798
725.218000,1815
725.218500,1808
725.219000,1800
725.219500,1812
725.220000,1819
725.220500,1801
725.221000,1812
725.221500,1815
725.222000,1802
725.222500,1796
725.223000,1813
725.223500,1810
725.224000,1799
725.224500,1810
725.225000,1817
725.225500,1801
725.226000,1825
725.226500,1817
725.227000,1807
725.227500,1804
725.228000,1820
725.228500,1803
725.229000,1799
725.229500,1808
725.230000,1813
725.230500,1801
725.231000,1793
725.231500,1808
725.232000,1798
725.232500,1792
725.233000,1811
725.233500,1817
725.234000,1800
725.234500,1812
725.235000,1816
725.235500,1803
725.236000,1799
725.236500,1812
725.237000,1806
725.237500,1800
725.238000,1812
725.238500,1816
725.239000,1799
725.239500,1822
725.240000,1814
725.240500,1803
725.241000,1800
725.241500,1815
725.242000,1801
725.242500,1802
725.243000,1813
725.243500,1820
725.244000,1804
725.244500,1799
725.245000,1817
725.245500,1806
725.246000,1800
725.246500,1809
725.247000,1813
725.247500,1799
725.248000,1811
725.248500,1815
725.249000,1797
725.249500,1795
725.250000,1810
725.250500,1802
725.251000,1796
725.251500,1809
725.252000,1816
725.252500,1802
725.253000,1809
725.253500,1816
725.254000,1803
725.254500,1801
725.255000,1815
725.255500,1805
725.256000,1798
725.256500,1811
725.257000,1812
725.257500,1801
725.258000,1804
725.258500,1813
725.259000,1799
725.259500,1797
725.260000,1808
725.260500,1816
725.261000,1800
725.261500,1812
725.262000,1817
725.262500,1805
725.263000,1801
725.263500,1816
725.264000,1805
725.264500,1802
725.265000,1812
725.265500,1816
725.266000,1801
725.266500,1810
725.267000,1813
725.267500,1801
725.268000,1798
725.268500,1812
725.269000,1804
725.269500,1797
725.270000,1808
725.270500,1815
725.271000,1801
725.271500,1815
725.272000,1811
725.272500,1807
725.273000,1802
725.273500,1815
725.274000,1817
725.274500,1797
725.275000,1808
725.275500,1815
725.276000,1802
725.276500,1798
725.277000,1813
725.277500,1808
725.278000,1800
725.278500,1812
725.279000,1816
725.279500,1802
725.280000,1808
725.280500,1816
725.281000,1803
725.281500,1798
725.282000,1812
725.282500,1811
725.283000,1802
725.283500,1813
725.284000,1817
725.284500,1802
725.285000,1811
725.285500,1816
725.286000,1801
725.286500,1798
725.287000,1813
725.287500,1806
725.288000,1799
725.288500,1812
725.289000,1816
725.289500,1801
725.290000,1816
725.290500,1813
725.291000,1802
725.291500,1798
725.292000,1815
725.292500,1809
725.293000,1799
725.293500,1810
725.294000,1816
725.294500,1802
725.295000,1799
725.295500,1813
725.296000,1803
725.296500,1797
725.297000,1811
725.297500,1819
725.298000,1800
725.298500,1808
725.299000,1814
725.299500,1800
725.300000,1798
725.300500,1811
725.301000,1805
725.301500,1799
725.302000,1810
725.302500,1820
725.303000,1802
725.303500,1802
725.304000,1812
725.304500,1804
725.305000,1796
725.305500,1810
725.306000,1803
725.306500,1798
725.307000,1811
725.307500,1819
725.308000,1805
725.308500,1802
725.309000,1818
725.309500,1811
725.310000,1803
725.310500,1814
725.311000,1821
725.311500,1801
725.312000,1805
725.312500,1816
725.313000,1799
725.313500,1798
725.314000,1812
725.314500,1804
725.315000,1798
725.315500,1809
725.316000,1813
725.316500,1801
725.317000,1801
725.317500,1818
725.318000,1805
725.318500,1799
725.319000,1810
725.319500,1802
725.320000,1799
725.320500,1809
725.321000,1815
725.321500,1801
725.322000,1803
725.322500,1815
725.323000,1803
725.323500,1799
725.324000,1813
725.324500,1817
725.325000,1800
725.325500,1809
725.326000,1816
725.326500,1803
725.327000,1798
725.327500,1814
725.328000,1809
725.328500,1804
725.329000,1808
725.329500,1818
725.330000,1800
725.330500,1809
725.331000,1815
725.331500,1802
725.332000,1795
725.332500,1815
725.333000,1805
725.333500,1801
725.334000,1812
725.334500,1817
725.335000,1800
725.335500,1810
725.336000,1814
725.336500,1801
725.337000,1797
725.337500,1810
725.338000,1805
725.338500,1801
725.339000,1811
725.339500,1818
725.340000,1804
725.340500,1804
725.341000,1816
725.341500,1806
725.342000,1800
725.342500,1816
725.343000,1810
725.343500,1802
725.344000,1807
725.344500,1809
725.345000,1796
725.345500,1815
725.346000,1810
725.346500,1802
725.347000,1797
725.347500,1811
725.348000,1805
725.348500,1799
725.349000,1808
725.349500,1816
725.350000,1799
725.350500,1803
725.351000,1814
725.351500,1803
725.352000,1799
725.352500,1811
725.353000,1822
725.353500,1803
725.354000,1813
725.354500,1814
725.355000,1802
725.355500,1795
725.356000,1813
725.356500,1803
725.357000,1799
725.357500,1818
725.358000,1818
725.358500,1803
725.359000,1811
725.359500,1817
725.360000,1805
725.360500,1799
725.361000,1813
725.361500,1803
725.362000,1793
725.362500,1808
725.363000,1816
725.363500,1802
725.364000,1812
725.364500,1815
725.365000,1802
725.365500,1799
725.366000,1812
725.366500,1807
725.367000,1800
725.367500,1819
725.368000,1816
725.368500,1803
725.369000,1816
725.369500,1813
725.370000,1802
725.370500,1798
725.371000,1810
725.371500,1808
725.372000,1800
725.372500,1814
725.373000,1818
725.373500,1806
725.374000,1799
725.374500,1810
725.375000,1801
725.375500,1798
725.376000,1810
725.376500,1814
725.377000,1800
725.377500,1809
725.378000,1815
725.378500,1804
725.379000,1797
725.379500,1811
725.380000,1807
725.380500,1802
725.381000,1812
725.381500,1818
725.382000,1801
725.382500,1826
725.383000,1815
725.383500,1806
725.384000,1798
725.384500,1814
725.385000,1819
725.385500,1801
725.386000,1812
725.386500,1818
725.387000,1806
725.387500,1799
725.388000,1816
725.388500,1809
725.389000,1798
725.389500,1808
725.390000,1812
725.390500,1797
725.391000,1805
725.391500,1813
725.392000,1804
725.392500,1796
725.393000,1816
725.393500,1812
725.394000,1798
725.394500,1811
725.395000,1818
725.395500,1801
725.396000,1804
725.396500,1815
725.397000,1803
725.397500,1799
725.398000,1816
725.398500,1806
725.399000,1801
725.399500,1812
725.400000,1816
725.400500,1802
725.401000,1795
725.401500,1815
725.402000,1804
725.402500,1797
725.403000,1813
725.403500,1818
725.404000,1798
725.404500,1811
725.405000,1815
725.405500,1801
725.406000,1796
725.406500,1813
725.407000,1806
725.407500,1801
725.408000,1814
725.408500,1818
725.409000,1803
725.409500,1801
725.410000,1816
725.410500,1805
725.411000,1798
725.411500,1813
725.412000,1804
725.412500,1794
725.413000,1806
725.413500,1815
725.414000,1798
725.414500,1795
725.415000,1813
725.415500,1806
725.416000,1801
725.416500,1814
725.417000,1821
725.417500,1802
725.418000,1816
725.418500,1818
725.419000,1803
725.419500,1798
725.420000,1816
725.420500,1802
725.421000,1797
725.421500,1809
725.422000,1811
725.422500,1796
725.423000,1808
725.423500,1813
725.424000,1801
725.424500,1793
725.425000,1808
725.425500,1804
725.426000,1798
725.426500,1811
725.427000,1814
725.427500,1801
725.428000,1811
725.428500,1817
725.429000,1801
725.429500,1795
725.430000,1812
725.430500,1808
725.431000,1798
725.431500,1809
725.432000,1816
725.432500,1802
725.433000,1818
725.433500,1813
725.434000,1801
725.434500,1798
725.435000,1814
725.435500,1802
725.436000,1806
725.436500,1814
725.437000,1820
725.437500,1804
725.438000,1801
725.438500,1814
725.439000,1804
725.439500,1799
725.440000,1810
725.440500,1808
725.441000,1790
725.441500,1804
725.442000,1811
725.442500,1802
725.443000,1797
725.443500,1814
725.444000,1801
725.444500,1799
725.445000,1812
725.445500,1816
725.446000,1803
725.446500,1813
725.447000,1813
725.447500,1802
725.448000,1797
725.448500,1812
725.449000,1804
725.449500,1796
725.450000,1809
725.450500,1813
725.451000,1801
725.451500,1807
725.452000,1819
725.452500,1808
725.453000,1805
725.453500,1822
725.454000,1813
725.454500,1803
725.455000,1809
725.455500,1808
725.456000,1792
725.456500,1800
725.457000,1809
725.457500,1804
725.458000,1801
725.458500,1820
725.459000,1809
725.459500,1806
725.460000,1822
725.460500,1823
725.461000,1812
725.461500,1832
725.462000,1824
725.462500,1808
725.463000,1795
725.463500,1801
725.464000,1783
725.464500,1786
725.465000,1799
725.465500,1804
725.466000,1792
725.466500,1789
725.467000,1808
725.467500,1804
725.468000,1794
725.468500,1806
725.469000,1811
725.469500,1800
725.470000,1816
725.470500,1819
725.471000,1804
725.471500,1796
725.472000,1813
725.472500,1805
725.473000,1798
725.473500,1814
725.474000,1817
725.474500,1804
725.475000,1816
725.475500,1823
725.476000,1813
725.476500,1811
725.477000,1823
725.477500,1817
725.478000,1804
725.478500,1812
725.479000,1813
725.479500,1798
725.480000,1805
725.480500,1815
725.481000,1804
725.481500,1801
725.482000,1821
725.482500,1815
725.483000,1813
725.483500,1824
725.484000,1831
725.484500,1816
725.485000,1821
725.485500,1811
725.486000,1797
725.486500,1790
725.487000,1801
725.487500,1789
725.488000,1795
725.488500,1810
725.489000,1809
725.489500,1796
725.490000,1791
725.490500,1814
725.491000,1804
725.491500,1800
725.492000,1811
725.492500,1817
725.493000,1792
725.493500,1806
725.494000,1810
725.494500,1801
725.495000,1796
725.495500,1810
725.496000,1798
725.496500,1789
725.497000,1803
725.497500,1811
725.498000,1795
725.498500,1803
725.499000,1807
725.499500,1796
725.500000,1795
725.500500,1811
725.501000,1806
725.501500,1804
725.502000,1824
725.502500,1835
725.503000,1816
725.503500,1815
725.504000,1815
725.504500,1803
725.505000,1800
725.505500,1819
725.506000,1813
725.506500,1809
725.507000,1822
725.507500,1830
725.508000,1810
725.508500,1832
725.509000,1818
725.509500,1797
725.510000,1785
725.510500,1802
725.511000,1796
725.511500,1804
725.512000,1828
725.512500,1845
725.513000,1829
725.513500,1819
725.514000,1830
725.514500,1804
725.515000,1782
725.515500,1795
725.516000,1817
725.516500,1809
725.517000,1823
725.517500,1828
725.518000,1813
725.518500,1808
725.519000,1824
725.519500,1824
725.520000,1833
725.520500,1851
725.521000,1857
725.521500,1836
725.522000,1834
725.522500,1831
725.523000,1806
725.523500,1790
725.524000,1800
725.524500,1798
725.525000,1807
725.525500,1832
725.526000,1848
725.526500,1830
725.527000,1824
725.527500,1832
725.528000,1824
725.528500,1818
725.529000,1829
725.529500,1808
725.530000,1771
725.530500,1741
725.531000,1712
725.531500,1698
725.532000,1744
725.532500,1801
725.533000,1811
725.533500,1821
725.534000,1843
725.534500,1836
725.535000,1818
725.535500,1823
725.536000,1829
725.536500,1816
725.537000,1808
725.537500,1812
725.538000,1808
725.538500,1827
725.539000,1846
725.539500,1822
725.540000,1797
725.540500,1789
725.541000,1786
725.541500,1790
725.542000,1796
725.542500,1805
725.543000,1788
725.543500,1785
725.544000,1807
725.544500,1823
725.545000,1833
725.545500,1849
725.546000,1845
725.546500,1813
725.547000,1812
725.547500,1813
725.548000,1802
725.548500,1803
725.549000,1833
725.549500,1824
725.550000,1805
725.550500,1798
725.551000,1782
725.551500,1745
725.552000,1747
725.552500,1750
725.553000,1756
725.553500,1760
725.554000,1778
725.554500,1785
725.555000,1811
725.555500,1836
725.556000,1843
725.556500,1832
725.557000,1832
725.557500,1849
725.558000,1833
725.558500,1826
725.559000,1836
725.559500,1833
725.560000,1821
725.560500,1838
725.561000,1839
725.561500,1817
725.562000,1815
725.562500,1835
725.563000,1817
725.563500,1801
725.564000,1793
725.564500,1786
725.565000,1754
725.565500,1757
725.566000,1765
725.566500,1775
725.567000,1800
725.567500,1836
725.568000,1844
725.568500,1852
725.569000,1858
725.569500,1851
725.570000,1816
725.570500,1801
725.571000,1792
725.571500,1769
725.572000,1750
725.572500,1753
725.573000,1735
725.573500,1747
725.574000,1777
725.574500,1798
725.575000,1785
725.575500,1785
725.576000,1793
725.576500,1790
725.577000,1790
725.577500,1813
725.578000,1811
725.578500,1807
725.579000,1807
725.579500,1811
725.580000,1790
725.580500,1817
725.581000,1848
725.581500,1855
725.582000,1854
725.582500,1868
725.583000,1860
725.583500,1863
725.584000,1875
725.584500,1855
725.585000,1805
725.585500,1799
725.586000,1791
725.586500,1775
725.587000,1780
725.587500,1800
725.588000,1794
725.588500,1803
725.589000,1809
725.589500,1798
725.590000,1813
725.590500,1841
725.591000,1840
725.591500,1801
725.592000,1771
725.592500,1774
725.593000,1753
725.593500,1742
725.594000,1760
725.594500,1775
725.595000,1823
725.595500,1865
725.596000,1884
725.596500,1854
725.597000,1842
725.597500,1828
725.598000,1816
725.598500,1807
725.599000,1812
725.599500,1779
725.600000,1758
725.600500,1774
725.601000,1789
725.601500,1782
725.602000,1807
725.602500,1796
725.603000,1767
725.603500,1751
725.604000,1754
725.604500,1735
725.605000,1770
725.605500,1812
725.606000,1847
725.606500,1880
725.607000,1905
725.607500,1935
725.608000,1918
725.608500,1885
725.609000,1871
725.609500,1845
725.610000,1792
725.610500,1764
725.611000,1758
725.611500,1767
725.612000,1783
725.612500,1803
725.613000,1807
725.613500,1812
725.614000,1827
725.614500,1835
725.615000,1838
725.615500,1858
725.616000,1855
725.616500,1834
725.617000,1798
725.617500,1767
725.618000,1723
725.618500,1724
725.619000,1769
725.619500,1793
725.620000,1776
725.620500,1817
725.621000,1878
725.621500,1875
725.622000,1851
725.622500,1834
725.623000,1779
725.623500,1727
725.624000,1716
725.624500,1716
725.625000,1687
725.625500,1697
725.626000,1722
725.626500,1746
725.627000,1793
725.627500,1835
725.628000,1851
725.628500,1860
725.629000,1858
725.629500,1842
725.630000,1806
725.630500,1790
725.631000,1777
725.631500,1738
725.632000,1753
725.632500,1803
725.633000,1814
725.633500,1826
725.634000,1858
725.634500,1881
725.635000,1855
725.635500,1834
725.636000,1829
725.636500,1821
725.637000,1822
725.637500,1849
725.638000,1832
725.638500,1820
725.639000,1819
725.639500,1815
725.640000,1799
725.640500,1803
725.641000,1819
725.641500,1823
725.642000,1813
725.642500,1816
725.643000,1790
725.643500,1773
725.644000,1767
725.644500,1759
725.645000,1752
725.645500,1805
725.646000,1869
725.646500,1900
725.647000,1913
725.647500,1918
725.648000,1867
725.648500,1791
725.649000,1730
725.649500,1681
725.650000,1663
725.650500,1697
725.651000,1796
725.651500,1831
725.652000,1836
725.652500,1845
725.653000,1891
725.653500,1890
725.654000,1896
725.654500,1902
725.655000,1888
725.655500,1884
725.656000,1884
725.656500,1823
725.657000,1739
725.657500,1696
725.658000,1654
725.658500,1660
725.659000,1716
725.659500,1755
725.660000,1740
725.660500,1741
725.661000,1761
725.661500,1783
725.662000,1813
725.662500,1855
725.663000,1879
725.663500,1900
725.664000,1927
725.664500,1932
725.665000,1905
725.665500,1853
725.666000,1818
725.666500,1796
725.667000,1759
725.667500,1755
725.668000,1770
725.668500,1754
725.669000,1730
725.669500,1771
725.670000,1824
725.670500,1856
725.671000,1903
725.671500,1923
725.672000,1899
725.672500,1898
725.673000,1883
725.673500,1825
725.674000,1762
725.674500,1724
725.675000,1685
725.675500,1693
725.676000,1731
725.676500,1753
725.677000,1745
725.677500,1770
725.678000,1786
725.678500,1777
725.679000,1809
725.679500,1851
725.680000,1835
725.680500,1816
725.681000,1809
725.681500,1795
725.682000,1746
725.682500,1728
725.683000,1784
725.683500,1828
725.684000,1860
725.684500,1849
725.685000,1821
725.685500,1806
725.686000,1828
725.686500,1859
725.687000,1859
725.687500,1855
725.688000,1843
725.688500,1796
725.689000,1725
725.689500,1706
725.690000,1704
725.690500,1699
725.691000,1737
725.691500,1780
725.692000,1809
725.692500,1857
725.693000,1909
725.693500,1932
725.694000,1920
725.694500,1903
725.695000,1853
725.695500,1795
725.696000,1793
725.696500,1782
725.697000,1771
725.697500,1795
725.698000,1819
725.698500,1802
725.699000,1796
725.699500,1786
725.700000,1777
725.700500,1763
725.701000,1764
725.701500,1770
725.702000,1792
725.702500,1806
725.703000,1833
725.703500,1840
725.704000,1823
725.704500,1829
725.705000,1820
725.705500,1779
725.706000,1746
725.706500,1751
725.707000,1770
725.707500,1812
725.708000,1829
725.708500,1822
725.709000,1787
725.709500,1775
725.710000,1774
725.710500,1756
725.711000,1756
725.711500,1787
725.712000,1819
725.712500,1875
725.713000,1935
725.713500,1944
725.714000,1908
725.714500,1904
725.715000,1908
725.715500,1887
725.716000,1865
725.716500,1857
725.717000,1851
725.717500,1802
725.718000,1799
725.718500,1786
725.719000,1771
725.719500,1773
725.720000,1811
725.720500,1810
725.721000,1792
725.721500,1795
725.722000,1781
725.722500,1766
725.723000,1784
725.723500,1816
725.724000,1806
725.724500,1757
725.725000,1702
725.725500,1664
725.726000,1651
725.726500,1690
725.727000,1751
725.727500,1797
725.728000,1842
725.728500,1831
725.729000,1813
725.729500,1811
725.730000,1823
725.730500,1808
725.731000,1792
725.731500,1762
725.732000,1740
725.732500,1732
725.733000,1736
725.733500,1764
725.734000,1772
725.734500,1802
725.735000,1836
725.735500,1856
725.736000,1884
725.736500,1951
725.737000,1988
725.737500,1962
725.738000,1918
725.738500,1920
725.739000,1877
725.739500,1797
725.740000,1750
725.740500,1724
725.741000,1726
725.741500,1779
725.742000,1847
725.742500,1844
725.743000,1804
725.743500,1780
725.744000,1737
725.744500,1712
725.745000,1738
725.745500,1781
725.746000,1810
725.746500,1818
725.747000,1816
725.747500,1805
725.748000,1827
725.748500,1846
725.749000,1826
725.749500,1831
725.750000,1854
725.750500,1855
725.751000,1836
725.751500,1860
725.752000,1865
725.752500,1867
725.753000,1879
725.753500,1887
725.754000,1852
725.754500,1822
725.755000,1802
725.755500,1790
725.756000,1756
725.756500,1719
725.757000,1714
725.757500,1723
725.758000,1745
725.758500,1773
725.759000,1790
725.759500,1788
725.760000,1823
725.760500,1844
725.761000,1875
725.761500,1886
725.762000,1859
725.762500,1783
725.763000,1742
725.763500,1749
725.764000,1776
725.764500,1762
725.765000,1737
725.765500,1737
725.766000,1743
725.766500,1739
725.767000,1762
725.767500,1770
725.768000,1813
725.768500,1883
725.769000,1899
725.769500,1855
725.770000,1856
725.770500,1866
725.771000,1847
725.771500,1816
725.772000,1805
725.772500,1787
725.773000,1781
725.773500,1790
725.774000,1785
725.774500,1757
725.775000,1767
725.775500,1782
725.776000,1827
725.776500,1883
725.777000,1933
725.777500,1918
725.778000,1893
725.778500,1844
725.779000,1764
725.779500,1707
725.780000,1750
725.780500,1800
725.781000,1811
725.781500,1837
725.782000,1908
725.782500,1927
725.783000,1897
725.783500,1880
725.784000,1807
725.784500,1697
725.785000,1610
725.785500,1613
725.786000,1668
725.786500,1764
725.787000,1829
725.787500,1845
725.788000,1828
725.788500,1816
725.789000,1796
725.789500,1792
725.790000,1788
725.790500,1815
725.791000,1819
725.791500,1812
725.792000,1819
725.792500,1854
725.793000,1836
725.793500,1834
725.794000,1835
725.794500,1821
725.795000,1826
725.795500,1852
725.796000,1857
725.796500,1821
725.797000,1794
725.797500,1756
725.798000,1710
725.798500,1709
725.799000,1722
725.799500,1731
725.800000,1751
725.800500,1789
725.801000,1816
725.801500,1812
725.802000,1821
725.802500,1809
725.803000,1788
725.803500,1797
725.804000,1853
725.804500,1891
725.805000,1885
725.805500,1893
725.806000,1861
725.806500,1830
725.807000,1862
725.807500,1894
725.808000,1843
725.808500,1754
725.809000,1767
725.809500,1774
725.810000,1761
725.810500,1796
725.811000,1819
725.811500,1813
725.812000,1829
725.812500,1835
725.813000,1820
725.813500,1799
725.814000,1766
725.814500,1766
725.815000,1797
725.815500,1853
725.816000,1873
725.816500,1868
725.817000,1869
725.817500,1889
725.818000,1882
725.818500,1846
725.819000,1808
725.819500,1775
725.820000,1776
725.820500,1790
725.821000,1774
725.821500,1730
725.822000,1682
725.822500,1687
725.823000,1713
725.823500,1755
725.824000,1805
725.824500,1832
725.825000,1833
725.825500,1847
725.826000,1824
725.826500,1790
725.827000,1818
725.827500,1871
725.828000,1856
725.828500,1869
725.829000,1902
725.829500,1865
725.830000,1774
725.830500,1746
725.831000,1803
725.831500,1811
725.832000,1781
725.832500,1765
725.833000,1755
725.833500,1746
725.834000,1746
725.834500,1754
725.835000,1749
725.835500,1730
725.836000,1757
725.836500,1761
725.837000,1757
725.837500,1744
725.838000,1766
725.838500,1840
725.839000,1917
725.839500,1915
725.840000,1867
725.840500,1854
725.841000,1876
725.841500,1860
725.842000,1813
725.842500,1817
725.843000,1860
725.843500,1864
725.844000,1849
725.844500,1837
725.845000,1833
725.845500,1826
725.846000,1827
725.846500,1832
725.847000,1841
725.847500,1853
725.848000,1832
725.848500,1804
725.849000,1783
725.849500,1774
725.850000,1742
725.850500,1762
725.851000,1803
725.851500,1798
725.852000,1740
725.852500,1727
725.853000,1759
725.853500,1806
725.854000,1862
725.854500,1905
725.855000,1910
725.855500,1898
725.856000,1896
725.856500,1880
725.857000,1831
725.857500,1808
725.858000,1772
725.858500,1758
725.859000,1778
725.859500,1866
725.860000,1886
725.860500,1870
725.861000,1876
725.861500,1871
725.862000,1806
725.862500,1757
725.863000,1752
725.863500,1690
725.864000,1714
725.864500,1823
725.865000,1853
725.865500,1777
725.866000,1713
725.866500,1683
725.867000,1665
725.867500,1674
725.868000,1680
725.868500,1708
725.869000,1737
725.869500,1773
725.870000,1792
725.870500,1799
725.871000,1840
725.871500,1864
725.872000,1841
725.872500,1804
725.873000,1786
725.873500,1767
725.874000,1764
725.874500,1795
725.875000,1810
725.875500,1798
725.876000,1803
725.876500,1808
725.877000,1816
725.877500,1839
725.878000,1853
725.878500,1805
725.879000,1788
725.879500,1815
725.880000,1819
725.880500,1771
725.881000,1742
725.881500,1726
725.882000,1757
725.882500,1840
725.883000,1910
725.883500,1904
725.884000,1858
725.884500,1864
725.885000,1869
725.885500,1881
725.886000,1940
725.886500,1993
725.887000,1941
725.887500,1840
725.888000,1794
725.888500,1808
725.889000,1890
725.889500,1937
725.890000,1946
725.890500,1892
725.891000,1782
725.891500,1747
725.892000,1747
725.892500,1764
725.893000,1751
725.893500,1697
725.894000,1634
725.894500,1625
725.895000,1625
725.895500,1656
725.896000,1704
725.896500,1772
725.897000,1799
725.897500,1801
725.898000,1811
725.898500,1832
725.899000,1844
725.899500,1870
725.900000,1866
725.900500,1851
725.901000,1868
725.901500,1865
725.902000,1809
725.902500,1785
725.903000,1810
725.903500,1812
725.904000,1801
725.904500,1829
725.905000,1849
725.905500,1818
725.906000,1785
725.906500,1779
725.907000,1780
725.907500,1816
725.908000,1846
725.908500,1856
725.909000,1834
725.909500,1785
725.910000,1685
725.910500,1640
725.911000,1690
725.911500,1800
725.912000,1848
725.912500,1836
725.913000,1814
725.913500,1794
725.914000,1753
725.914500,1763
725.915000,1841
725.915500,1909
725.916000,1946
725.916500,1961
725.917000,1936
725.917500,1875
725.918000,1844
725.918500,1808
725.919000,1743
725.919500,1686
725.920000,1675
725.920500,1726
725.921000,1797
725.921500,1829
725.922000,1818
725.922500,1780
725.923000,1767
725.923500,1804
725.924000,1801
725.924500,1791
725.925000,1787
725.925500,1759
725.926000,1754
725.926500,1748
725.927000,1733
725.927500,1748
725.928000,1791
725.928500,1813
725.929000,1816
725.929500,1813
725.930000,1851
725.930500,1868
725.931000,1853
725.931500,1852
725.932000,1858
725.932500,1877
725.933000,1860
725.933500,1850
725.934000,1847
725.934500,1861
725.935000,1891
725.935500,1895
725.936000,1836
725.936500,1803
725.937000,1786
725.937500,1776
725.938000,1769
725.938500,1757
725.939000,1736
725.939500,1802
725.940000,1927
725.940500,1953
725.941000,1866
725.941500,1814
725.942000,1733
725.942500,1662
725.943000,1619
725.943500,1688
725.944000,1745
725.944500,1792
725.945000,1814
725.945500,1827
725.946000,1837
725.946500,1844
725.947000,1829
725.947500,1780
725.948000,1796
725.948500,1882
725.949000,1899
725.949500,1852
725.950000,1811
725.950500,1776
725.951000,1728
725.951500,1749
725.952000,1788
725.952500,1799
725.953000,1796
725.953500,1797
725.954000,1787
725.954500,1786
725.955000,1830
725.955500,1849
725.956000,1810
725.956500,1784
725.957000,1815
725.957500,1831
725.958000,1841
725.958500,1863
725.959000,1849
725.959500,1785
725.960000,1767
725.960500,1752
725.961000,1739
725.961500,1781
725.962000,1849
725.962500,1805
725.963000,1743
725.963500,1782
725.964000,1821
725.964500,1781
725.965000,1756
725.965500,1770
725.966000,1764
725.966500,1758
725.967000,1785
725.967500,1794
725.968000,1814
725.968500,1864
725.969000,1866
725.969500,1864
725.970000,1924
725.970500,1946
725.971000,1911
725.971500,1829
725.972000,1791
725.972500,1777
725.973000,1774
725.973500,1797
725.974000,1804
725.974500,1768
725.975000,1718
725.975500,1733
725.976000,1780
725.976500,1861
725.977000,1910
725.977500,1900
725.978000,1842
725.978500,1794
725.979000,1788
725.979500,1788
725.980000,1789
725.980500,1819
725.981000,1863
725.981500,1881
725.982000,1867
725.982500,1819
725.983000,1743
725.983500,1714
725.984000,1708
725.984500,1727
725.985000,1764
725.985500,1785
725.986000,1775
725.986500,1741
725.987000,1752
725.987500,1823
725.988000,1867
725.988500,1883
725.989000,1849
725.989500,1815
725.990000,1741
725.990500,1752
725.991000,1905
725.991500,1979
725.992000,1942
725.992500,1844
725.993000,1783
725.993500,1788
725.994000,1779
725.994500,1763
725.995000,1779
725.995500,1782
725.996000,1740
725.996500,1745
725.997000,1873
725.997500,1972
725.998000,1930
725.998500,1878
725.999000,1878
725.999500,1894
726.000000,1900
726.000500,1870
726.001000,1827
726.001500,1772
726.002000,1739
726.002500,1723
726.003000,1695
726.003500,1636
726.004000,1619
726.004500,1652
726.005000,1711
726.005500,1732
726.006000,1748
726.006500,1759
726.007000,1794
726.007500,1818
726.008000,1807
726.008500,1807
726.009000,1807
726.009500,1787
726.010000,1748
726.010500,1757
726.011000,1803
726.011500,1823
726.012000,1829
726.012500,1812
726.013000,1778
726.013500,1751
726.014000,1757
726.014500,1788
726.015000,1811
726.015500,1855
726.016000,1921
726.016500,1939
726.017000,1918
726.017500,1890
726.018000,1805
726.018500,1760
726.019000,1795
726.019500,1826
726.020000,1787
726.020500,1778
726.021000,1865
726.021500,1914
726.022000,1903
726.022500,1908
726.023000,1879
726.023500,1824
726.024000,1795
726.024500,1838
726.025000,1843
726.025500,1826
726.026000,1813
726.026500,1731
726.027000,1613
726.027500,1573
726.028000,1637
726.028500,1718
726.029000,1793
726.029500,1826
726.030000,1836
726.030500,1864
726.031000,1921
726.031500,1944
726.032000,1970
726.032500,1978
726.033000,1975
726.033500,1960
726.034000,1897
726.034500,1805
726.035000,1727
726.035500,1742
726.036000,1799
726.036500,1807
726.037000,1816
726.037500,1821
726.038000,1773
726.038500,1720
726.039000,1676
726.039500,1701
726.040000,1791
726.040500,1831
726.041000,1753
726.041500,1709
726.042000,1685
726.042500,1742
726.043000,1776
726.043500,1799
726.044000,1805
726.044500,1829
726.045000,1819
726.045500,1799
726.046000,1769
726.046500,1737
726.047000,1720
726.047500,1714
726.048000,1733
726.048500,1767
726.049000,1808
726.049500,1856
726.050000,1878
726.050500,1870
726.051000,1866
726.051500,1847
726.052000,1823
726.052500,1810
726.053000,1871
726.053500,1903
726.054000,1900
726.054500,1890
726.055000,1859
726.055500,1829
726.056000,1825
726.056500,1825
726.057000,1804
726.057500,1792
726.058000,1788
726.058500,1773
726.059000,1749
726.059500,1757
726.060000,1840
726.060500,1898
726.061000,1897
726.061500,1872
726.062000,1776
726.062500,1678
726.063000,1636
726.063500,1698
726.064000,1799
726.064500,1823
726.065000,1808
726.065500,1763
726.066000,1694
726.066500,1648
726.067000,1650
726.067500,1759
726.068000,1892
726.068500,1993
726.069000,2017
726.069500,2035
726.070000,2011
726.070500,1934
726.071000,1827
726.071500,1770
726.072000,1734
726.072500,1700
726.073000,1685
726.073500,1706
726.074000,1730
726.074500,1769
726.075000,1777
726.075500,1780
726.076000,1774
726.076500,1770
726.077000,1763
726.077500,1745
726.078000,1773
726.078500,1788
726.079000,1788
726.079500,1806
726.080000,1841
726.080500,1851
726.081000,1813
726.081500,1761
726.082000,1761
726.082500,1827
726.083000,1896
726.083500,1907
726.084000,1896
726.084500,1902
726.085000,1928
726.085500,1905
726.086000,1859
726.086500,1836
726.087000,1808
726.087500,1745
726.088000,1747
726.088500,1779
726.089000,1774
726.089500,1757
726.090000,1762
726.090500,1772
726.091000,1776
726.091500,1781
726.092000,1816
726.092500,1811
726.093000,1818
726.093500,1851
726.094000,1829
726.094500,1791
726.095000,1783
726.095500,1785
726.096000,1797
726.096500,1832
726.097000,1808
726.097500,1750
726.098000,1682
726.098500,1702
726.099000,1749
726.099500,1793
726.100000,1850
726.100500,1924
726.101000,1926
726.101500,1890
726.102000,1862
726.102500,1836
726.103000,1829
726.103500,1842
726.104000,1857
726.104500,1888
726.105000,1912
726.105500,1909
726.106000,1871
726.106500,1840
726.107000,1840
726.107500,1834
726.108000,1854
726.108500,1830
726.109000,1763
726.109500,1703
726.110000,1673
726.110500,1649
726.111000,1638
726.111500,1684
726.112000,1747
726.112500,1768
726.113000,1767
726.113500,1829
726.114000,1858
726.114500,1857
726.115000,1834
726.115500,1798
726.116000,1790
726.116500,1838
726.117000,1920
726.117500,1916
726.118000,1862
726.118500,1782
726.119000,1692
726.119500,1673
726.120000,1735
726.120500,1774
726.121000,1805
726.121500,1836
726.122000,1849
726.122500,1814
726.123000,1762
726.123500,1762
726.124000,1782
726.124500,1767
726.125000,1762
726.125500,1750
726.126000,1745
726.126500,1713
726.127000,1679
726.127500,1705
726.128000,1810
726.128500,1865
726.129000,1845
726.129500,1904
726.130000,2020
726.130500,2081
726.131000,2054
726.131500,1965
726.132000,1846
726.132500,1724
726.133000,1699
726.133500,1767
726.134000,1787
726.134500,1744
726.135000,1733
726.135500,1748
726.136000,1745
726.136500,1740
726.137000,1754
726.137500,1766
726.138000,1784
726.138500,1803
726.139000,1792
726.139500,1770
726.140000,1824
726.140500,1896
726.141000,1943
726.141500,1985
726.142000,2017
726.142500,1983
726.143000,1904
726.143500,1766
726.144000,1643
726.144500,1601
726.145000,1615
726.145500,1681
726.146000,1732
726.146500,1753
726.147000,1792
726.147500,1862
726.148000,1865
726.148500,1848
726.149000,1809
726.149500,1751
726.150000,1712
726.150500,1761
726.151000,1833
726.151500,1898
726.152000,1906
726.152500,1887
726.153000,1836
726.153500,1799
726.154000,1785
726.154500,1815
726.155000,1842
726.155500,1829
726.156000,1784
726.156500,1748
726.157000,1730
726.157500,1708
726.158000,1708
726.158500,1767
726.159000,1789
726.159500,1808
726.160000,1858
726.160500,1875
726.161000,1859
726.161500,1837
726.162000,1854
726.162500,1846
726.163000,1803
726.163500,1796
726.164000,1809
726.164500,1792
726.165000,1832
726.165500,1876
726.166000,1821
726.166500,1758
726.167000,1773
726.167500,1764
726.168000,1728
726.168500,1735
726.169000,1765
726.169500,1744
726.170000,1737
726.170500,1782
726.171000,1892
726.171500,1962
726.172000,1954
726.172500,1911
726.173000,1864
726.173500,1820
726.174000,1797
726.174500,1770
726.175000,1774
726.175500,1795
726.176000,1789
726.176500,1762
726.177000,1757
726.177500,1792
726.178000,1804
726.178500,1804
726.179000,1825
726.179500,1851
726.180000,1846
726.180500,1854
726.181000,1852
726.181500,1822
726.182000,1791
726.182500,1793
726.183000,1769
726.183500,1759
726.184000,1786
726.184500,1810
726.185000,1801
726.185500,1816
726.186000,1820
726.186500,1832
726.187000,1859
726.187500,1907
726.188000,1895
726.188500,1858
726.189000,1877
726.189500,1883
726.190000,1841
726.190500,1803
726.191000,1752
726.191500,1694
726.192000,1679
726.192500,1741
726.193000,1806
726.193500,1863
726.194000,1893
726.194500,1872
726.195000,1797
726.195500,1714
726.196000,1640
726.196500,1661
726.197000,1761
726.197500,1868
726.198000,1906
726.198500,1879
726.199000,1815
726.199500,1740
726.200000,1703
726.200500,1728
726.201000,1739
726.201500,1750
726.202000,1764
726.202500,1774
726.203000,1763
726.203500,1754
726.204000,1752
726.204500,1768
726.205000,1791
726.205500,1825
726.206000,1863
726.206500,1854
726.207000,1832
726.207500,1841
726.208000,1852
726.208500,1840
726.209000,1879
726.209500,1899
726.210000,1875
726.210500,1827
726.211000,1799
726.211500,1771
726.212000,1755
726.212500,1782
726.213000,1808
726.213500,1811
726.214000,1816
726.214500,1818
726.215000,1774
726.215500,1712
726.216000,1731
726.216500,1838
726.217000,1917
726.217500,1910
726.218000,1876
726.218500,1828
726.219000,1802
726.219500,1795
726.220000,1829
726.220500,1865
726.221000,1890
726.221500,1875
726.222000,1834
726.222500,1796
726.223000,1758
726.223500,1707
726.224000,1691
726.224500,1709
726.225000,1744
726.225500,1773
726.226000,1784
726.226500,1796
726.227000,1834
726.227500,1859
726.228000,1886
726.228500,1881
726.229000,1828
726.229500,1805
726.230000,1790
726.230500,1789
726.231000,1805
726.231500,1843
726.232000,1829
726.232500,1805
726.233000,1787
726.233500,1775
726.234000,1786
726.234500,1804
726.235000,1774
726.235500,1721
726.236000,1720
726.236500,1756
726.237000,1803
726.237500,1848
726.238000,1864
726.238500,1851
726.239000,1828
726.239500,1824
726.240000,1814
726.240500,1842
726.241000,1882
726.241500,1897
726.242000,1884
726.242500,1903
726.243000,1899
726.243500,1866
726.244000,1853
726.244500,1838
726.245000,1779
726.245500,1737
726.246000,1768
726.246500,1802
726.247000,1802
726.247500,1785
726.248000,1769
726.248500,1773
726.249000,1777
726.249500,1827
726.250000,1853
726.250500,1845
726.251000,1809
726.251500,1723
726.252000,1601
726.252500,1530
726.253000,1578
726.253500,1651
726.254000,1744
726.254500,1837
726.255000,1859
726.255500,1826
726.256000,1877
726.256500,1927
726.257000,1944
726.257500,1949
726.258000,1934
726.258500,1863
726.259000,1818
726.259500,1868
726.260000,1942
726.260500,1945
726.261000,1935
726.261500,1919
726.262000,1890
726.262500,1860
726.263000,1823
726.263500,1789
726.264000,1757
726.264500,1709
726.265000,1686
726.265500,1661
726.266000,1674
726.266500,1745
726.267000,1811
726.267500,1786
726.268000,1773
726.268500,1755
726.269000,1740
726.269500,1739
726.270000,1765
726.270500,1758
726.271000,1743
726.271500,1756
726.272000,1763
726.272500,1776
726.273000,1785
726.273500,1796
726.274000,1790
726.274500,1779
726.275000,1756
726.275500,1757
726.276000,1792
726.276500,1831
726.277000,1827
726.277500,1825
726.278000,1860
726.278500,1888
726.279000,1872
726.279500,1860
726.280000,1838
726.280500,1812
726.281000,1807
726.281500,1828
726.282000,1823
726.282500,1813
726.283000,1805
726.283500,1782
726.284000,1738
726.284500,1788
726.285000,1840
726.285500,1850
726.286000,1865
726.286500,1873
726.287000,1864
726.287500,1837
726.288000,1815
726.288500,1757
726.289000,1776
726.289500,1828
726.290000,1868
726.290500,1823
726.291000,1762
726.291500,1715
726.292000,1713
726.292500,1768
726.293000,1821
726.293500,1862
726.294000,1891
726.294500,1915
726.295000,1932
726.295500,1891
726.296000,1833
726.296500,1847
726.297000,1855
726.297500,1836
726.298000,1847
726.298500,1791
726.299000,1646
726.299500,1551
726.300000,1591
726.300500,1677
726.301000,1712
726.301500,1726
726.302000,1726
726.302500,1736
726.303000,1810
726.303500,1871
726.304000,1851
726.304500,1861
726.305000,1918
726.305500,1946
726.306000,1949
726.306500,1911
726.307000,1844
726.307500,1776
726.308000,1749
726.308500,1806
726.309000,1861
726.309500,1888
726.310000,1891
726.310500,1876
726.311000,1803
726.311500,1727
726.312000,1674
726.312500,1698
726.313000,1764
726.313500,1776
726.314000,1727
726.314500,1720
726.315000,1776
726.315500,1812
726.316000,1789
726.316500,1787
726.317000,1795
726.317500,1802
726.318000,1824
726.318500,1868
726.319000,1892
726.319500,1900
726.320000,1879
726.320500,1852
726.321000,1812
726.321500,1810
726.322000,1802
726.322500,1775
726.323000,1760
726.323500,1791
726.324000,1810
726.324500,1810
726.325000,1815
726.325500,1806
726.326000,1778
726.326500,1769
726.327000,1778
726.327500,1769
726.328000,1771
726.328500,1802
726.329000,1871
726.329500,1896
726.330000,1901
726.330500,1904
726.331000,1889
726.331500,1866
726.332000,1813
726.332500,1744
726.333000,1699
726.333500,1693
726.334000,1687
726.334500,1715
726.335000,1782
726.335500,1805
726.336000,1785
726.336500,1775
726.337000,1792
726.337500,1797
726.338000,1778
726.338500,1811
726.339000,1808
726.339500,1765
726.340000,1731
726.340500,1734
726.341000,1736
726.341500,1790
726.342000,1865
726.342500,1914
726.343000,1906
726.343500,1882
726.344000,1839
726.344500,1795
726.345000,1771
726.345500,1796
726.346000,1828
726.346500,1867
726.347000,1912
726.347500,1941
726.348000,1929
726.348500,1936
726.349000,1924
726.349500,1868
726.350000,1784
726.350500,1763
726.351000,1722
726.351500,1693
726.352000,1704
726.352500,1736
726.353000,1755
726.353500,1817
726.354000,1948
726.354500,1987
726.355000,1947
726.355500,1868
726.356000,1717
726.356500,1564
726.357000,1545
726.357500,1646
726.358000,1717
726.358500,1752
726.359000,1799
726.359500,1804
726.360000,1804
726.360500,1802
726.361000,1788
726.361500,1769
726.362000,1833
726.362500,1897
726.363000,1879
726.363500,1829
726.364000,1833
726.364500,1828
726.365000,1804
726.365500,1786
726.366000,1743
726.366500,1705
726.367000,1794
726.367500,1924
726.368000,1965
726.368500,1958
726.369000,1945
726.369500,1919
726.370000,1860
726.370500,1812
726.371000,1769
726.371500,1730
726.372000,1697
726.372500,1714
726.373000,1764
726.373500,1790
726.374000,1804
726.374500,1802
726.375000,1755
726.375500,1744
726.376000,1748
726.376500,1725
726.377000,1719
726.377500,1757
726.378000,1801
726.378500,1831
726.379000,1878
726.379500,1924
726.380000,1935
726.380500,1917
726.381000,1898
726.381500,1867
726.382000,1838
726.382500,1818
726.383000,1773
726.383500,1721
726.384000,1772
726.384500,1842
726.385000,1842
726.385500,1829
726.386000,1798
726.386500,1735
726.387000,1715
726.387500,1769
726.388000,1809
726.388500,1792
726.389000,1777
726.389500,1752
726.390000,1767
726.390500,1824
726.391000,1875
726.391500,1861
726.392000,1826
726.392500,1793
726.393000,1754
726.393500,1727
726.394000,1744
726.394500,1790
726.395000,1811
726.395500,1824
726.396000,1842
726.396500,1838
726.397000,1799
726.397500,1802
726.398000,1796
726.398500,1778
726.399000,1839
726.399500,1925
726.400000,1996
726.400500,2024
726.401000,1970
726.401500,1867
726.402000,1745
726.402500,1673
726.403000,1637
726.403500,1645
726.404000,1695
726.404500,1762
726.405000,1777
726.405500,1767
726.406000,1764
726.406500,1753
726.407000,1743
726.407500,1787
726.408000,1794
726.408500,1788
726.409000,1793
726.409500,1829
726.410000,1845
726.410500,1834
726.411000,1847
726.411500,1843
726.412000,1809
726.412500,1796
726.413000,1800
726.413500,1773
726.414000,1764
726.414500,1795
726.415000,1803
726.415500,1819
726.416000,1889
726.416500,1943
726.417000,1943
726.417500,1946
726.418000,1922
726.418500,1845
726.419000,1784
726.419500,1757
726.420000,1709
726.420500,1648
726.421000,1716
726.421500,1793
726.422000,1812
726.422500,1806
726.423000,1794
726.423500,1797
726.424000,1777
726.424500,1807
726.425000,1840
726.425500,1838
726.426000,1831
726.426500,1837
726.427000,1839
726.427500,1832
726.428000,1831
726.428500,1830
726.429000,1805
726.429500,1782
726.430000,1774
726.430500,1779
726.431000,1798
726.431500,1835
726.432000,1818
726.432500,1821
726.433000,1872
726.433500,1900
726.434000,1872
726.434500,1839
726.435000,1840
726.435500,1829
726.436000,1824
726.436500,1834
726.437000,1826
726.437500,1795
726.438000,1791
726.438500,1776
726.439000,1753
726.439500,1744
726.440000,1751
726.440500,1733
726.441000,1728
726.441500,1741
726.442000,1756
726.442500,1759
726.443000,1815
726.443500,1854
726.444000,1877
726.444500,1866
726.445000,1817
726.445500,1720
726.446000,1683
726.446500,1737
726.447000,1813
726.447500,1827
726.448000,1838
726.448500,1840
726.449000,1830
726.449500,1816
726.450000,1814
726.450500,1823
726.451000,1816
726.451500,1816
726.452000,1820
726.452500,1840
726.453000,1854
726.453500,1851
726.454000,1803
726.454500,1774
726.455000,1756
726.455500,1729
726.456000,1723
726.456500,1774
726.457000,1851
726.457500,1881
726.458000,1866
726.458500,1862
726.459000,1841
726.459500,1806
726.460000,1800
726.460500,1779
726.461000,1762
726.461500,1784
726.462000,1762
726.462500,1668
726.463000,1625
726.463500,1759
726.464000,1905
726.464500,1957
726.465000,1933
726.465500,1923
726.466000,1919
726.466500,1891
726.467000,1830
726.467500,1747
726.468000,1706
726.468500,1729
726.469000,1770
726.469500,1783
726.470000,1799
726.470500,1799
726.471000,1775
726.471500,1769
726.472000,1815
726.472500,1839
726.473000,1842
726.473500,1847
726.474000,1808
726.474500,1743
726.475000,1724
726.475500,1749
726.476000,1786
726.476500,1786
726.477000,1803
726.477500,1829
726.478000,1865
726.478500,1892
726.479000,1890
726.479500,1867
726.480000,1851
726.480500,1839
726.481000,1832
726.481500,1835
726.482000,1844
726.482500,1857
726.483000,1866
726.483500,1853
726.484000,1811
726.484500,1736
726.485000,1702
726.485500,1734
726.486000,1738
726.486500,1718
726.487000,1735
726.487500,1772
726.488000,1791
726.488500,1831
726.489000,1857
726.489500,1818
726.490000,1774
726.490500,1767
726.491000,1774
726.491500,1825
726.492000,1888
726.492500,1899
726.493000,1857
726.493500,1803
726.494000,1727
726.494500,1687
726.495000,1720
726.495500,1807
726.496000,1836
726.496500,1848
726.497000,1861
726.497500,1872
726.498000,1851
726.498500,1878
726.499000,1872
726.499500,1861
726.500000,1841
726.500500,1910
726.501000,1920
726.501500,1887
726.502000,1851
726.502500,1822
726.503000,1730
726.503500,1646
726.504000,1630
726.504500,1646
726.505000,1686
726.505500,1753
726.506000,1780
726.506500,1737
726.507000,1717
726.507500,1738
726.508000,1745
726.508500,1774
726.509000,1857
726.509500,1880
726.510000,1873
726.510500,1889
726.511000,1909
726.511500,1866
726.512000,1813
726.512500,1831
726.513000,1833
726.513500,1842
726.514000,1830
726.514500,1794
726.515000,1769
726.515500,1754
726.516000,1730
726.516500,1693
726.517000,1704
726.517500,1757
726.518000,1795
726.518500,1813
726.519000,1816
726.519500,1793
726.520000,1767
726.520500,1799
726.521000,1885
726.521500,1911
726.522000,1911
726.522500,1868
726.523000,1814
726.523500,1802
726.524000,1810
726.524500,1826
726.525000,1855
726.525500,1841
726.526000,1794
726.526500,1749
726.527000,1751
726.527500,1823
726.528000,1860
726.528500,1851
726.529000,1841
726.529500,1809
726.530000,1758
726.530500,1769
726.531000,1801
726.531500,1830
726.532000,1817
726.532500,1807
726.533000,1789
726.533500,1817
726.534000,1874
726.534500,1921
726.535000,1935
726.535500,1945
726.536000,1913
726.536500,1849
726.537000,1787
726.537500,1755
726.538000,1718
726.538500,1700
726.539000,1712
726.539500,1742
726.540000,1745
726.540500,1765
726.541000,1743
726.541500,1726
726.542000,1724
726.542500,1746
726.543000,1758
726.543500,1786
726.544000,1822
726.544500,1856
726.545000,1849
726.545500,1842
726.546000,1877
726.546500,1866
726.547000,1839
726.547500,1816
726.548000,1781
726.548500,1716
726.549000,1709
726.549500,1735
726.550000,1757
726.550500,1778
726.551000,1832
726.551500,1839
726.552000,1839
726.552500,1844
726.553000,1838
726.553500,1826
726.554000,1819
726.554500,1796
726.555000,1784
726.555500,1796
726.556000,1807
726.556500,1798
726.557000,1796
726.557500,1872
726.558000,1916
726.558500,1883
726.559000,1837
726.559500,1803
726.560000,1758
726.560500,1727
726.561000,1765
726.561500,1803
726.562000,1838
726.562500,1855
726.563000,1854
726.563500,1817
726.564000,1782
726.564500,1776
726.565000,1773
726.565500,1781
726.566000,1788
726.566500,1788
726.567000,1775
726.567500,1782
726.568000,1762
726.568500,1741
726.569000,1764
726.569500,1818
726.570000,1829
726.570500,1905
726.571000,1979
726.571500,1985
726.572000,1919
726.572500,1856
726.573000,1763
726.573500,1660
726.574000,1616
726.574500,1695
726.575000,1782
726.575500,1820
726.576000,1841
726.576500,1876
726.577000,1888
726.577500,1913
726.578000,1952
726.578500,1966
726.579000,1945
726.579500,1913
726.580000,1827
726.580500,1709
726.581000,1661
726.581500,1702
726.582000,1734
726.582500,1761
726.583000,1773
726.583500,1734
726.584000,1703
726.584500,1718
726.585000,1753
726.585500,1766
726.586000,1790
726.586500,1804
726.587000,1816
726.587500,1835
726.588000,1861
726.588500,1841
726.589000,1786
726.589500,1784
726.590000,1819
726.590500,1851
726.591000,1875
726.591500,1849
726.592000,1798
726.592500,1759
726.593000,1737
726.593500,1725
726.594000,1752
726.594500,1775
726.595000,1788
726.595500,1776
726.596000,1809
726.596500,1832
726.597000,1860
726.597500,1874
726.598000,1895
726.598500,1887
726.599000,1866
726.599500,1849
726.600000,1869
726.600500,1877
726.601000,1829
726.601500,1780
726.602000,1709
726.602500,1697
726.603000,1742
726.603500,1788
726.604000,1786
726.604500,1794
726.605000,1796
726.605500,1789
726.606000,1814
726.606500,1852
726.607000,1841
726.607500,1812
726.608000,1783
726.608500,1738
726.609000,1697
726.609500,1725
726.610000,1740
726.610500,1737
726.611000,1736
726.611500,1780
726.612000,1804
726.612500,1842
726.613000,1903
726.613500,1937
726.614000,1929
726.614500,1943
726.615000,1924
726.615500,1893
726.616000,1848
726.616500,1807
726.617000,1755
726.617500,1748
726.618000,1768
726.618500,1786
726.619000,1774
726.619500,1759
726.620000,1776
726.620500,1779
726.621000,1794
726.621500,1805
726.622000,1786
726.622500,1764
726.623000,1788
726.623500,1805
726.624000,1790
726.624500,1784
726.625000,1787
726.625500,1770
726.626000,1754
726.626500,1794
726.627000,1829
726.627500,1827
726.628000,1858
726.628500,1933
726.629000,1990
726.629500,2053
726.630000,2077
726.630500,2011
726.631000,1850
726.631500,1674
726.632000,1585
726.632500,1616
726.633000,1713
726.633500,1819
726.634000,1825
726.634500,1802
726.635000,1809
726.635500,1797
726.636000,1749
726.636500,1733
726.637000,1709
726.637500,1704
726.638000,1720
726.638500,1786
726.639000,1816
726.639500,1804
726.640000,1797
726.640500,1783
726.641000,1753
726.641500,1781
726.642000,1801
726.642500,1836
726.643000,1862
726.643500,1869
726.644000,1860
726.644500,1856
726.645000,1840
726.645500,1823
726.646000,1814
726.646500,1853
726.647000,1906
726.647500,1903
726.648000,1885
726.648500,1891
726.649000,1858
726.649500,1770
726.650000,1735
726.650500,1717
726.651000,1706
726.651500,1713
726.652000,1734
726.652500,1722
726.653000,1699
726.653500,1715
726.654000,1731
726.654500,1746
726.655000,1791
726.655500,1806
726.656000,1802
726.656500,1799
726.657000,1803
726.657500,1791
726.658000,1790
726.658500,1798
726.659000,1816
726.659500,1826
726.660000,1862
726.660500,1938
726.661000,1969
726.661500,1953
726.662000,1944
726.662500,1943
726.663000,1892
726.663500,1824
726.664000,1751
726.664500,1726
726.665000,1746
726.665500,1792
726.666000,1786
726.666500,1782
726.667000,1781
726.667500,1798
726.668000,1822
726.668500,1845
726.669000,1855
726.669500,1814
726.670000,1744
726.670500,1721
726.671000,1740
726.671500,1791
726.672000,1818
726.672500,1807
726.673000,1759
726.673500,1734
726.674000,1749
726.674500,1746
726.675000,1745
726.675500,1771
726.676000,1798
726.676500,1798
726.677000,1818
726.677500,1821
726.678000,1817
726.678500,1832
726.679000,1842
726.679500,1845
726.680000,1849
726.680500,1864
726.681000,1871
726.681500,1816
726.682000,1748
726.682500,1700
726.683000,1764
726.683500,1866
726.684000,1904
726.684500,1847
726.685000,1795
726.685500,1775
726.686000,1755
726.686500,1706
726.687000,1749
726.687500,1815
726.688000,1829
726.688500,1819
726.689000,1875
726.689500,1879
726.690000,1872
726.690500,1854
726.691000,1819
726.691500,1753
726.692000,1718
726.692500,1754
726.693000,1787
726.693500,1801
726.694000,1831
726.694500,1835
726.695000,1804
726.695500,1802
726.696000,1800
726.696500,1779
726.697000,1776
726.697500,1801
726.698000,1809
726.698500,1831
726.699000,1879
726.699500,1887
726.700000,1856
726.700500,1853
726.701000,1882
726.701500,1871
726.702000,1846
726.702500,1868
726.703000,1860
726.703500,1815
726.704000,1793
726.704500,1815
726.705000,1848
726.705500,1861
726.706000,1819
726.706500,1762
726.707000,1715
726.707500,1736
726.708000,1746
726.708500,1748
726.709000,1775
726.709500,1771
726.710000,1745
726.710500,1762
726.711000,1803
726.711500,1808
726.712000,1797
726.712500,1812
726.713000,1817
726.713500,1809
726.714000,1832
726.714500,1824
726.715000,1799
726.715500,1777
726.716000,1795
726.716500,1798
726.717000,1773
726.717500,1746
726.718000,1751
726.718500,1762
726.719000,1782
726.719500,1779
726.720000,1772
726.720500,1782
726.721000,1820
726.721500,1813
726.722000,1793
726.722500,1807
726.723000,1803
726.723500,1786
726.724000,1779
726.724500,1788
726.725000,1795
726.725500,1850
726.726000,1892
726.726500,1908
726.727000,1905
726.727500,1905
726.728000,1902
726.728500,1887
726.729000,1869
726.729500,1845
726.730000,1803
726.730500,1772
726.731000,1796
726.731500,1802
726.732000,1793
726.732500,1807
726.733000,1788
726.733500,1736
726.734000,1688
726.734500,1703
726.735000,1745
726.735500,1779
726.736000,1861
726.736500,1915
726.737000,1971
726.737500,2011
726.738000,2019
726.738500,1941
726.739000,1781
726.739500,1644
726.740000,1618
726.740500,1667
726.741000,1737
726.741500,1747
726.742000,1729
726.742500,1743
726.743000,1788
726.743500,1780
726.744000,1766
726.744500,1773
726.745000,1808
726.745500,1809
726.746000,1780
726.746500,1788
726.747000,1805
726.747500,1802
726.748000,1767
726.748500,1772
726.749000,1811
726.749500,1878
726.750000,1880
726.750500,1815
726.751000,1756
726.751500,1751
726.752000,1776
726.752500,1822
726.753000,1844
726.753500,1846
726.754000,1829
726.754500,1828
726.755000,1840
726.755500,1812
726.756000,1796
726.756500,1800
726.757000,1807
726.757500,1787
726.758000,1797
726.758500,1789
726.759000,1773
726.759500,1777
726.760000,1808
726.760500,1847
726.761000,1887
726.761500,1921
726.762000,1912
726.762500,1861
726.763000,1829
726.763500,1820
726.764000,1783
726.764500,1758
726.765000,1769
726.765500,1787
726.766000,1846
726.766500,1875
726.767000,1876
726.767500,1866
726.768000,1875
726.768500,1885
726.769000,1835
726.769500,1793
726.770000,1813
726.770500,1832
726.771000,1808
726.771500,1785
726.772000,1710
726.772500,1619
726.773000,1604
726.773500,1680
726.774000,1757
726.774500,1785
726.775000,1787
726.775500,1784
726.776000,1785
726.776500,1814
726.777000,1845
726.777500,1844
726.778000,1834
726.778500,1845
726.779000,1822
726.779500,1820
726.780000,1836
726.780500,1829
726.781000,1815
726.781500,1829
726.782000,1862
726.782500,1851
726.783000,1852
726.783500,1849
726.784000,1818
726.784500,1795
726.785000,1799
726.785500,1813
726.786000,1814
726.786500,1831
726.787000,1837
726.787500,1809
726.788000,1789
726.788500,1825
726.789000,1837
726.789500,1815
726.790000,1781
726.790500,1739
726.791000,1706
726.791500,1729
726.792000,1778
726.792500,1798
726.793000,1800
726.793500,1811
726.794000,1795
726.794500,1762
726.795000,1748
726.795500,1764
726.796000,1756
726.796500,1739
726.797000,1752
726.797500,1783
726.798000,1779
726.798500,1800
726.799000,1817
726.799500,1853
726.800000,1884
726.800500,1913
726.801000,1890
726.801500,1825
726.802000,1775
726.802500,1802
726.803000,1860
726.803500,1927
726.804000,1917
726.804500,1868
726.805000,1801
726.805500,1815
726.806000,1838
726.806500,1804
726.807000,1749
726.807500,1725
726.808000,1704
726.808500,1695
726.809000,1716
726.809500,1730
726.810000,1731
726.810500,1748
726.811000,1778
726.811500,1793
726.812000,1847
726.812500,1860
726.813000,1797
726.813500,1747
726.814000,1752
726.814500,1781
726.815000,1842
726.815500,1876
726.816000,1855
726.816500,1807
726.817000,1858
726.817500,1929
726.818000,1941
726.818500,1942
726.819000,1937
726.819500,1892
726.820000,1853
726.820500,1801
726.821000,1738
726.821500,1703
726.822000,1723
726.822500,1792
726.823000,1802
726.823500,1786
726.824000,1800
726.824500,1819
726.825000,1801
726.825500,1787
726.826000,1777
726.826500,1765
726.827000,1766
726.827500,1789
726.828000,1784
726.828500,1786
726.829000,1828
726.829500,1874
726.830000,1863
726.830500,1858
726.831000,1820
726.831500,1761
726.832000,1739
726.832500,1778
726.833000,1828
726.833500,1889
726.834000,1916
726.834500,1887
726.835000,1815
726.835500,1763
726.836000,1736
726.836500,1715
726.837000,1735
726.837500,1771
726.838000,1793
726.838500,1804
726.839000,1820
726.839500,1820
726.840000,1794
726.840500,1768
726.841000,1758
726.841500,1753
726.842000,1806
726.842500,1847
726.843000,1824
726.843500,1784
726.844000,1762
726.844500,1745
726.845000,1715
726.845500,1728
726.846000,1769
726.846500,1792
726.847000,1835
726.847500,1880
726.848000,1904
726.848500,1927
726.849000,1952
726.849500,1971
726.850000,1908
726.850500,1804
726.851000,1739
726.851500,1741
726.852000,1775
726.852500,1826
726.853000,1850
726.853500,1842
726.854000,1843
726.854500,1826
726.855000,1733
726.855500,1673
726.856000,1705
726.856500,1734
726.857000,1733
726.857500,1763
726.858000,1775
726.858500,1782
726.859000,1790
726.859500,1820
726.860000,1820
726.860500,1802
726.861000,1816
726.861500,1825
726.862000,1817
726.862500,1836
726.863000,1831
726.863500,1806
726.864000,1778
726.864500,1802
726.865000,1812
726.865500,1804
726.866000,1811
726.866500,1821
726.867000,1825
726.867500,1852
726.868000,1915
726.868500,1960
726.869000,1976
726.869500,1946
726.870000,1904
726.870500,1849
726.871000,1798
726.871500,1772
726.872000,1753
726.872500,1725
726.873000,1725
726.873500,1721
726.874000,1735
726.874500,1757
726.875000,1787
726.875500,1800
726.876000,1840
726.876500,1865
726.877000,1809
726.877500,1718
726.878000,1637
726.878500,1608
726.879000,1682
726.879500,1803
726.880000,1879
726.880500,1872
726.881000,1835
726.881500,1828
726.882000,1805
726.882500,1791
726.883000,1812
726.883500,1842
726.884000,1875
726.884500,1941
726.885000,1928
726.885500,1849
726.886000,1796
726.886500,1773
726.887000,1740
726.887500,1739
726.888000,1764
726.888500,1795
726.889000,1800
726.889500,1825
726.890000,1838
726.890500,1832
726.891000,1833
726.891500,1849
726.892000,1844
726.892500,1842
726.893000,1843
726.893500,1831
726.894000,1786
726.894500,1766
726.895000,1763
726.895500,1748
726.896000,1751
726.896500,1798
726.897000,1819
726.897500,1840
726.898000,1835
726.898500,1790
726.899000,1752
726.899500,1768
726.900000,1819
726.900500,1859
726.901000,1862
726.901500,1850
726.902000,1832
726.902500,1813
726.903000,1803
726.903500,1770
726.904000,1724
726.904500,1705
726.905000,1720
726.905500,1703
726.906000,1701
726.906500,1718
726.907000,1782
726.907500,1843
726.908000,1871
726.908500,1828
726.909000,1811
726.909500,1860
726.910000,1881
726.910500,1831
726.911000,1797
726.911500,1807
726.912000,1798
726.912500,1781
726.913000,1804
726.913500,1813
726.914000,1788
726.914500,1772
726.915000,1775
726.915500,1788
726.916000,1841
726.916500,1905
726.917000,1944
726.917500,1909
726.918000,1865
726.918500,1795
726.919000,1765
726.919500,1795
726.920000,1849
726.920500,1879
726.921000,1874
726.921500,1835
726.922000,1789
726.922500,1756
726.923000,1739
726.923500,1740
726.924000,1724
726.924500,1743
726.925000,1783
726.925500,1791
726.926000,1767
726.926500,1780
726.927000,1799
726.927500,1794
726.928000,1780
726.928500,1793
726.929000,1796
726.929500,1843
726.930000,1884
726.930500,1919
726.931000,1911
726.931500,1866
726.932000,1769
726.932500,1704
726.933000,1749
726.933500,1802
726.934000,1793
726.934500,1760
726.935000,1727
726.935500,1727
726.936000,1719
726.936500,1741
726.937000,1788
726.937500,1858
726.938000,1912
726.938500,1967
726.939000,1915
726.939500,1833
726.940000,1812
726.940500,1797
726.941000,1778
726.941500,1782
726.942000,1816
726.942500,1824
726.943000,1818
726.943500,1822
726.944000,1831
726.944500,1834
726.945000,1872
726.945500,1870
726.946000,1828
726.946500,1839
726.947000,1866
726.947500,1848
726.948000,1827
726.948500,1800
726.949000,1765
726.949500,1749
726.950000,1775
726.950500,1792
726.951000,1772
726.951500,1765
726.952000,1773
726.952500,1762
726.953000,1758
726.953500,1745
726.954000,1701
726.954500,1661
726.955000,1738
726.955500,1839
726.956000,1882
726.956500,1875
726.957000,1889
726.957500,1870
726.958000,1841
726.958500,1799
726.959000,1769
726.959500,1759
726.960000,1777
726.960500,1816
726.961000,1824
726.961500,1827
726.962000,1841
726.962500,1837
726.963000,1805
726.963500,1791
726.964000,1763
726.964500,1732
726.965000,1716
726.965500,1727
726.966000,1742
726.966500,1813
726.967000,1904
726.967500,1930
726.968000,1876
726.968500,1798
726.969000,1744
726.969500,1758
726.970000,1844
726.970500,1937
726.971000,1975
726.971500,1982
726.972000,1923
726.972500,1837
726.973000,1754
726.973500,1713
726.974000,1704
726.974500,1717
726.975000,1762
726.975500,1792
726.976000,1781
726.976500,1746
726.977000,1744
726.977500,1748
726.978000,1732
726.978500,1727
726.979000,1784
726.979500,1814
726.980000,1819
726.980500,1812
726.981000,1784
726.981500,1771
726.982000,1819
726.982500,1894
726.983000,1923
726.983500,1926
726.984000,1899
726.984500,1851
726.985000,1822
726.985500,1823
726.986000,1810
726.986500,1785
726.987000,1775
726.987500,1806
726.988000,1813
726.988500,1822
726.989000,1839
726.989500,1825
726.990000,1777
726.990500,1759
726.991000,1759
726.991500,1754
726.992000,1747
726.992500,1786
726.993000,1800
726.993500,1822
726.994000,1831
726.994500,1811
726.995000,1767
726.995500,1751
726.996000,1771
726.996500,1786
726.997000,1786
726.997500,1792
726.998000,1789
726.998500,1836
726.999000,1853
726.999500,1848
727.000000,1821
727.000500,1799
727.001000,1790
727.001500,1765
727.002000,1775
727.002500,1819
727.003000,1823
727.003500,1795
727.004000,1801
727.004500,1810
727.005000,1804
727.005500,1805
727.006000,1827
727.006500,1829
727.007000,1843
727.007500,1877
727.008000,1900
727.008500,1875
727.009000,1862
727.009500,1819
727.010000,1783
727.010500,1752
727.011000,1756
727.011500,1749
727.012000,1750
727.012500,1807
727.013000,1853
727.013500,1826
727.014000,1787
727.014500,1769
727.015000,1759
727.015500,1783
727.016000,1798
727.016500,1798
727.017000,1767
727.017500,1736
727.018000,1701
727.018500,1714
727.019000,1760
727.019500,1852
727.020000,1939
727.020500,1992
727.021000,1975
727.021500,1902
727.022000,1841
727.022500,1839
727.023000,1836
727.023500,1798
727.024000,1760
727.024500,1760
727.025000,1757
727.025500,1782
727.026000,1800
727.026500,1802
727.027000,1793
727.027500,1808
727.028000,1798
727.028500,1777
727.029000,1782
727.029500,1822
727.030000,1836
727.030500,1832
727.031000,1820
727.031500,1782
727.032000,1747
727.032500,1764
727.033000,1799
727.033500,1834
727.034000,1804
727.034500,1786
727.035000,1792
727.035500,1780
727.036000,1772
727.036500,1786
727.037000,1791
727.037500,1817
727.038000,1855
727.038500,1835
727.039000,1821
727.039500,1843
727.040000,1842
727.040500,1774
727.041000,1747
727.041500,1825
727.042000,1882
727.042500,1895
727.043000,1924
727.043500,1914
727.044000,1851
727.044500,1795
727.045000,1760
727.045500,1709
727.046000,1654
727.046500,1672
727.047000,1711
727.047500,1739
727.048000,1788
727.048500,1811
727.049000,1844
727.049500,1895
727.050000,1916
727.050500,1879
727.051000,1874
727.051500,1850
727.052000,1814
727.052500,1781
727.053000,1778
727.053500,1751
727.054000,1746
727.054500,1765
727.055000,1774
727.055500,1766
727.056000,1768
727.056500,1789
727.057000,1782
727.057500,1786
727.058000,1802
727.058500,1821
727.059000,1814
727.059500,1839
727.060000,1845
727.060500,1834
727.061000,1848
727.061500,1874
727.062000,1865
727.062500,1869
727.063000,1895
727.063500,1918
727.064000,1879
727.064500,1846
727.065000,1831
727.065500,1798
727.066000,1769
727.066500,1761
727.067000,1747
727.067500,1734
727.068000,1732
727.068500,1737
727.069000,1739
727.069500,1765
727.070000,1775
727.070500,1765
727.071000,1752
727.071500,1763
727.072000,1767
727.072500,1761
727.073000,1794
727.073500,1790
727.074000,1730
727.074500,1700
727.075000,1722
727.075500,1748
727.076000,1787
727.076500,1834
727.077000,1862
727.077500,1883
727.078000,1915
727.078500,1907
727.079000,1850
727.079500,1812
727.080000,1796
727.080500,1780
727.081000,1791
727.081500,1860
727.082000,1942
727.082500,1932
727.083000,1845
727.083500,1771
727.084000,1740
727.084500,1757
727.085000,1806
727.085500,1816
727.086000,1817
727.086500,1822
727.087000,1824
727.087500,1813
727.088000,1808
727.088500,1824
727.089000,1807
727.089500,1821
727.090000,1835
727.090500,1848
727.091000,1828
727.091500,1814
727.092000,1778
727.092500,1727
727.093000,1717
727.093500,1734
727.094000,1729
727.094500,1741
727.095000,1822
727.095500,1893
727.096000,1904
727.096500,1884
727.097000,1867
727.097500,1814
727.098000,1785
727.098500,1795
727.099000,1812
727.099500,1824
727.100000,1873
727.100500,1893
727.101000,1892
727.101500,1864
727.102000,1848
727.102500,1807
727.103000,1772
727.103500,1768
727.104000,1763
727.104500,1751
727.105000,1746
727.105500,1741
727.106000,1725
727.106500,1727
727.107000,1752
727.107500,1759
727.108000,1758
727.108500,1788
727.109000,1795
727.109500,1790
727.110000,1813
727.110500,1831
727.111000,1810
727.111500,1785
727.112000,1816
727.112500,1889
727.113000,1897
727.113500,1871
727.114000,1812
727.114500,1789
727.115000,1789
727.115500,1787
727.116000,1742
727.116500,1740
727.117000,1765
727.117500,1771
727.118000,1826
727.118500,1882
727.119000,1897
727.119500,1865
727.120000,1844
727.120500,1825
727.121000,1789
727.121500,1795
727.122000,1801
727.122500,1804
727.123000,1786
727.123500,1808
727.124000,1808
727.124500,1790
727.125000,1775
727.125500,1786
727.126000,1794
727.126500,1767
727.127000,1777
727.127500,1801
727.128000,1802
727.128500,1795
727.129000,1778
727.129500,1754
727.130000,1803
727.130500,1908
727.131000,1944
727.131500,1924
727.132000,1900
727.132500,1877
727.133000,1812
727.133500,1758
727.134000,1748
727.134500,1766
727.135000,1774
727.135500,1777
727.136000,1779
727.136500,1750
727.137000,1801
727.137500,1854
727.138000,1883
727.138500,1873
727.139000,1847
727.139500,1826
727.140000,1788
727.140500,1792
727.141000,1801
727.141500,1792
727.142000,1779
727.142500,1793
727.143000,1784
727.143500,1781
727.144000,1792
727.144500,1805
727.145000,1799
727.145500,1809
727.146000,1796
727.146500,1779
727.147000,1811
727.147500,1867
727.148000,1868
727.148500,1826
727.149000,1806
727.149500,1807
727.150000,1782
727.150500,1802
727.151000,1824
727.151500,1826
727.152000,1802
727.152500,1800
727.153000,1787
727.153500,1765
727.154000,1765
727.154500,1784
727.155000,1795
727.155500,1823
727.156000,1825
727.156500,1792
727.157000,1772
727.157500,1778
727.158000,1791
727.158500,1788
727.159000,1811
727.159500,1820
727.160000,1815
727.160500,1828
727.161000,1859
727.161500,1851
727.162000,1834
727.162500,1835
727.163000,1829
727.163500,1836
727.164000,1874
727.164500,1855
727.165000,1806
727.165500,1777
727.166000,1774
727.166500,1740
727.167000,1715
727.167500,1745
727.168000,1784
727.168500,1801
727.169000,1838
727.169500,1843
727.170000,1824
727.170500,1778
727.171000,1752
727.171500,1747
727.172000,1734
727.172500,1763
727.173000,1778
727.173500,1782
727.174000,1786
727.174500,1805
727.175000,1782
727.175500,1753
727.176000,1758
727.176500,1798
727.177000,1827
727.177500,1855
727.178000,1880
727.178500,1854
727.179000,1831
727.179500,1831
727.180000,1808
727.180500,1791
727.181000,1797
727.181500,1798
727.182000,1792
727.182500,1800
727.183000,1817
727.183500,1810
727.184000,1808
727.184500,1829
727.185000,1849
727.185500,1866
727.186000,1903
727.186500,1878
727.187000,1836
727.187500,1791
727.188000,1794
727.188500,1813
727.189000,1814
727.189500,1803
727.190000,1794
727.190500,1796
727.191000,1819
727.191500,1819
727.192000,1786
727.192500,1785
727.193000,1804
727.193500,1798
727.194000,1790
727.194500,1805
727.195000,1816
727.195500,1820
727.196000,1845
727.196500,1870
727.197000,1859
727.197500,1845
727.198000,1855
727.198500,1862
727.199000,1825
727.199500,1788
727.200000,1745
727.200500,1729
727.201000,1732
727.201500,1749
727.202000,1766
727.202500,1792
727.203000,1819
727.203500,1859
727.204000,1877
727.204500,1891
727.205000,1898
727.205500,1859
727.206000,1808
727.206500,1764
727.207000,1747
727.207500,1770
727.208000,1793
727.208500,1786
727.209000,1750
727.209500,1723
727.210000,1724
727.210500,1715
727.211000,1740
727.211500,1777
727.212000,1805
727.212500,1819
727.213000,1847
727.213500,1858
727.214000,1847
727.214500,1856
727.215000,1886
727.215500,1883
727.216000,1856
727.216500,1813
727.217000,1799
727.217500,1794
727.218000,1815
727.218500,1819
727.219000,1762
727.219500,1692
727.220000,1698
727.220500,1732
727.221000,1709
727.221500,1689
727.222000,1728
727.222500,1844
727.223000,1894
727.223500,1885
727.224000,1825
727.224500,1784
727.225000,1752
727.225500,1754
727.226000,1778
727.226500,1835
727.227000,1858
727.227500,1862
727.228000,1861
727.228500,1893
727.229000,1866
727.229500,1848
727.230000,1878
727.230500,1877
727.231000,1839
727.231500,1816
727.232000,1778
727.232500,1725
727.233000,1718
727.233500,1776
727.234000,1830
727.234500,1823
727.235000,1841
727.235500,1831
727.236000,1814
727.236500,1810
727.237000,1833
727.237500,1821
727.238000,1789
727.238500,1775
727.239000,1764
727.239500,1760
727.240000,1805
727.240500,1823
727.241000,1813
727.241500,1791
727.242000,1795
727.242500,1797
727.243000,1765
727.243500,1760
727.244000,1760
727.244500,1787
727.245000,1838
727.245500,1875
727.246000,1862
727.246500,1878
727.247000,1934
727.247500,1958
727.248000,1919
727.248500,1902
727.249000,1880
727.249500,1823
727.250000,1789
727.250500,1791
727.251000,1754
727.251500,1744
727.252000,1753
727.252500,1749
727.253000,1717
727.253500,1725
727.254000,1774
727.254500,1789
727.255000,1783
727.255500,1790
727.256000,1793
727.256500,1772
727.257000,1781
727.257500,1799
727.258000,1800
727.258500,1805
727.259000,1818
727.259500,1809
727.260000,1792
727.260500,1796
727.261000,1795
727.261500,1781
727.262000,1810
727.262500,1831
727.263000,1838
727.263500,1850
727.264000,1868
727.264500,1832
727.265000,1808
727.265500,1797
727.266000,1797
727.266500,1793
727.267000,1819
727.267500,1852
727.268000,1816
727.268500,1781
727.269000,1774
727.269500,1786
727.270000,1771
727.270500,1773
727.271000,1767
727.271500,1767
727.272000,1779
727.272500,1820
727.273000,1837
727.273500,1844
727.274000,1902
727.274500,1945
727.275000,1914
727.275500,1902
727.276000,1876
727.276500,1810
727.277000,1732
727.277500,1716
727.278000,1713
727.278500,1735
727.279000,1757
727.279500,1785
727.280000,1769
727.280500,1757
727.281000,1779
727.281500,1794
727.282000,1802
727.282500,1820
727.283000,1815
727.283500,1790
727.284000,1808
727.284500,1828
727.285000,1815
727.285500,1794
727.286000,1798
727.286500,1789
727.287000,1791
727.287500,1851
727.288000,1900
727.288500,1921
727.289000,1939
727.289500,1907
727.290000,1789
727.290500,1671
727.291000,1650
727.291500,1693
727.292000,1742
727.292500,1754
727.293000,1759
727.293500,1760
727.294000,1776
727.294500,1807
727.295000,1806
727.295500,1790
727.296000,1791
727.296500,1796
727.297000,1775
727.297500,1797
727.298000,1841
727.298500,1861
727.299000,1860
727.299500,1858
727.300000,1837
727.300500,1823
727.301000,1827
727.301500,1832
727.302000,1824
727.302500,1829
727.303000,1845
727.303500,1851
727.304000,1855
727.304500,1881
727.305000,1879
727.305500,1855
727.306000,1828
727.306500,1781
727.307000,1727
727.307500,1726
727.308000,1748
727.308500,1772
727.309000,1788
727.309500,1823
727.310000,1810
727.310500,1792
727.311000,1770
727.311500,1772
727.312000,1792
727.312500,1827
727.313000,1856
727.313500,1849
727.314000,1842
727.314500,1847
727.315000,1831
727.315500,1799
727.316000,1784
727.316500,1777
727.317000,1771
727.317500,1782
727.318000,1798
727.318500,1782
727.319000,1762
727.319500,1776
727.320000,1786
727.320500,1772
727.321000,1767
727.321500,1787
727.322000,1791
727.322500,1807
727.323000,1837
727.323500,1824
727.324000,1820
727.324500,1832
727.325000,1834
727.325500,1799
727.326000,1771
727.326500,1792
727.327000,1790
727.327500,1795
727.328000,1825
727.328500,1833
727.329000,1788
727.329500,1812
727.330000,1846
727.330500,1840
727.331000,1868
727.331500,1909
727.332000,1917
727.332500,1899
727.333000,1871
727.333500,1809
727.334000,1734
727.334500,1750
727.335000,1806
727.335500,1807
727.336000,1802
727.336500,1823
727.337000,1805
727.337500,1774
727.338000,1754
727.338500,1736
727.339000,1716
727.339500,1769
727.340000,1811
727.340500,1811
727.341000,1800
727.341500,1810
727.342000,1819
727.342500,1802
727.343000,1808
727.343500,1811
727.344000,1762
727.344500,1710
727.345000,1717
727.345500,1734
727.346000,1758
727.346500,1783
727.347000,1811
727.347500,1818
727.348000,1852
727.348500,1866
727.349000,1847
727.349500,1829
727.350000,1838
727.350500,1839
727.351000,1828
727.351500,1826
727.352000,1823
727.352500,1815
727.353000,1837
727.353500,1835
727.354000,1828
727.354500,1816
727.355000,1816
727.355500,1783
727.356000,1773
727.356500,1780
727.357000,1782
727.357500,1774
727.358000,1792
727.358500,1821
727.359000,1808
727.359500,1796
727.360000,1803
727.360500,1805
727.361000,1794
727.361500,1815
727.362000,1819
727.362500,1798
727.363000,1784
727.363500,1817
727.364000,1834
727.364500,1828
727.365000,1825
727.365500,1821
727.366000,1808
727.366500,1828
727.367000,1833
727.367500,1821
727.368000,1805
727.368500,1825
727.369000,1813
727.369500,1753
727.370000,1730
727.370500,1771
727.371000,1820
727.371500,1859
727.372000,1875
727.372500,1866
727.373000,1848
727.373500,1846
727.374000,1828
727.374500,1834
727.375000,1863
727.375500,1880
727.376000,1861
727.376500,1850
727.377000,1878
727.377500,1872
727.378000,1841
727.378500,1825
727.379000,1784
727.379500,1728
727.380000,1724
727.380500,1743
727.381000,1738
727.381500,1735
727.382000,1754
727.382500,1758
727.383000,1753
727.383500,1775
727.384000,1841
727.384500,1875
727.385000,1909
727.385500,1923
727.386000,1885
727.386500,1815
727.387000,1733
727.387500,1693
727.388000,1706
727.388500,1738
727.389000,1756
727.389500,1748
727.390000,1749
727.390500,1788
727.391000,1788
727.391500,1788
727.392000,1806
727.392500,1815
727.393000,1794
727.393500,1806
727.394000,1801
727.394500,1786
727.395000,1780
727.395500,1799
727.396000,1800
727.396500,1800
727.397000,1813
727.397500,1822
727.398000,1809
727.398500,1819
727.399000,1823
727.399500,1803
727.400000,1774
727.400500,1779
727.401000,1791
727.401500,1811
727.402000,1844
727.402500,1865
727.403000,1846
727.403500,1850
727.404000,1847
727.404500,1838
727.405000,1828
727.405500,1837
727.406000,1822
727.406500,1803
727.407000,1801
727.407500,1804
727.408000,1778
727.408500,1782
727.409000,1784
727.409500,1786
727.410000,1836
727.410500,1916
727.411000,1946
727.411500,1944
727.412000,1921
727.412500,1851
727.413000,1734
727.413500,1653
727.414000,1651
727.414500,1655
727.415000,1697
727.415500,1776
727.416000,1827
727.416500,1827
727.417000,1826
727.417500,1841
727.418000,1827
727.418500,1805
727.419000,1800
727.419500,1800
727.420000,1825
727.420500,1834
727.421000,1814
727.421500,1814
727.422000,1827
727.422500,1833
727.423000,1796
727.423500,1771
727.424000,1780
727.424500,1780
727.425000,1813
727.425500,1884
727.426000,1922
727.426500,1903
727.427000,1872
727.427500,1842
727.428000,1734
727.428500,1635
727.429000,1656
727.429500,1727
727.430000,1772
727.430500,1835
727.431000,1851
727.431500,1835
727.432000,1818
727.432500,1843
727.433000,1845
727.433500,1844
727.434000,1851
727.434500,1850
727.435000,1833
727.435500,1829
727.436000,1811
727.436500,1774
727.437000,1754
727.437500,1778
727.438000,1779
727.438500,1780
727.439000,1781
727.439500,1786
727.440000,1781
727.440500,1774
727.441000,1781
727.441500,1768
727.442000,1768
727.442500,1779
727.443000,1779
727.443500,1763
727.444000,1782
727.444500,1796
727.445000,1796
727.445500,1807
727.446000,1829
727.446500,1819
727.447000,1802
727.447500,1809
727.448000,1809
727.448500,1807
727.449000,1842
727.449500,1858
727.450000,1844
727.450500,1836
727.451000,1848
727.451500,1833
727.452000,1817
727.452500,1832
727.453000,1835
727.453500,1811
727.454000,1774
727.454500,1761
727.455000,1782
727.455500,1817
727.456000,1824
727.456500,1806
727.457000,1787
727.457500,1827
727.458000,1839
727.458500,1840
727.459000,1833
727.459500,1838
727.460000,1836
727.460500,1841
727.461000,1858
727.461500,1851
727.462000,1806
727.462500,1805
727.463000,1806
727.463500,1791
727.464000,1790
727.464500,1812
727.465000,1798
727.465500,1792
727.466000,1809
727.466500,1822
727.467000,1816
727.467500,1799
727.468000,1793
727.468500,1802
727.469000,1823
727.469500,1857
727.470000,1830
727.470500,1794
727.471000,1781
727.471500,1780
727.472000,1760
727.472500,1743
727.473000,1755
727.473500,1813
727.474000,1875
727.474500,1912
727.475000,1888
727.475500,1807
727.476000,1732
727.476500,1643
727.477000,1662
727.477500,1780
727.478000,1880
727.478500,1908
727.479000,1902
727.479500,1901
727.480000,1877
727.480500,1832
727.481000,1816
727.481500,1782
727.482000,1746
727.482500,1755
727.483000,1788
727.483500,1782
727.484000,1780
727.484500,1793
727.485000,1801
727.485500,1794
727.486000,1809
727.486500,1799
727.487000,1807
727.487500,1832
727.488000,1835
727.488500,1791
727.489000,1756
727.489500,1735
727.490000,1727
727.490500,1729
727.491000,1738
727.491500,1774
727.492000,1781
727.492500,1818
727.493000,1870
727.493500,1884
727.494000,1859
727.494500,1876
727.495000,1879
727.495500,1846
727.496000,1802
727.496500,1778
727.497000,1743
727.497500,1704
727.498000,1727
727.498500,1766
727.499000,1775
727.499500,1801
727.500000,1821
727.500500,1821
727.501000,1841
727.501500,1879
727.502000,1866
727.502500,1849
727.503000,1850
727.503500,1844
727.504000,1815
727.504500,1820
727.505000,1805
727.505500,1760
727.506000,1753
727.506500,1778
727.507000,1769
727.507500,1769
727.508000,1790
727.508500,1811
727.509000,1812
727.509500,1829
727.510000,1838
727.510500,1816
727.511000,1789
727.511500,1802
727.512000,1816
727.512500,1826
727.513000,1844
727.513500,1834
727.514000,1788
727.514500,1755
727.515000,1767
727.515500,1773
727.516000,1779
727.516500,1804
727.517000,1808
727.517500,1821
727.518000,1836
727.518500,1832
727.519000,1817
727.519500,1809
727.520000,1824
727.520500,1818
727.521000,1816
727.521500,1833
727.522000,1856
727.522500,1848
727.523000,1858
727.523500,1867
727.524000,1849
727.524500,1863
727.525000,1877
727.525500,1852
727.526000,1849
727.526500,1863
727.527000,1853
727.527500,1797
727.528000,1734
727.528500,1695
727.529000,1701
727.529500,1741
727.530000,1781
727.530500,1765
727.531000,1732
727.531500,1733
727.532000,1750
727.532500,1756
727.533000,1797
727.533500,1813
727.534000,1809
727.534500,1813
727.535000,1821
727.535500,1822
727.536000,1794
727.536500,1812
727.537000,1829
727.537500,1820
727.538000,1807
727.538500,1824
727.539000,1814
727.539500,1795
727.540000,1789
727.540500,1787
727.541000,1768
727.541500,1779
727.542000,1785
727.542500,1773
727.543000,1774
727.543500,1801
727.544000,1799
727.544500,1814
727.545000,1870
727.545500,1911
727.546000,1906
727.546500,1903
727.547000,1886
727.547500,1857
727.548000,1846
727.548500,1857
727.549000,1835
727.549500,1808
727.550000,1772
727.550500,1746
727.551000,1725
727.551500,1736
727.552000,1776
727.552500,1779
727.553000,1768
727.553500,1770
727.554000,1775
727.554500,1766
727.555000,1783
727.555500,1810
727.556000,1842
727.556500,1853
727.557000,1873
727.557500,1845
727.558000,1825
727.558500,1829
727.559000,1827
727.559500,1804
727.560000,1786
727.560500,1770
727.561000,1749
727.561500,1740
727.562000,1759
727.562500,1752
727.563000,1752
727.563500,1781
727.564000,1819
727.564500,1876
727.565000,1907
727.565500,1897
727.566000,1852
727.566500,1808
727.567000,1783
727.567500,1747
727.568000,1695
727.568500,1747
727.569000,1817
727.569500,1834
727.570000,1815
727.570500,1816
727.571000,1794
727.571500,1780
727.572000,1791
727.572500,1817
727.573000,1830
727.573500,1840
727.574000,1852
727.574500,1840
727.575000,1826
727.575500,1825
727.576000,1791
727.576500,1762
727.577000,1774
727.577500,1816
727.578000,1816
727.578500,1806
727.579000,1824
727.579500,1814
727.580000,1805
727.580500,1814
727.581000,1819
727.581500,1798
727.582000,1796
727.582500,1796
727.583000,1791
727.583500,1800
727.584000,1819
727.584500,1805
727.585000,1786
727.585500,1787
727.586000,1786
727.586500,1782
727.587000,1814
727.587500,1829
727.588000,1819
727.588500,1820
727.589000,1838
727.589500,1831
727.590000,1823
727.590500,1854
727.591000,1870
727.591500,1865
727.592000,1854
727.592500,1850
727.593000,1806
727.593500,1773
727.594000,1776
727.594500,1796
727.595000,1782
727.595500,1776
727.596000,1763
727.596500,1747
727.597000,1749
727.597500,1779
727.598000,1798
727.598500,1805
727.599000,1811
727.599500,1800
727.600000,1776
727.600500,1811
727.601000,1832
727.601500,1836
727.602000,1854
727.602500,1923
727.603000,1973
727.603500,1948
727.604000,1938
727.604500,1934
727.605000,1894
727.605500,1840
727.606000,1804
727.606500,1741
727.607000,1684
727.607500,1648
727.608000,1656
727.608500,1673
727.609000,1734
727.609500,1774
727.610000,1780
727.610500,1779
727.611000,1791
727.611500,1785
727.612000,1782
727.612500,1799
727.613000,1799
727.613500,1785
727.614000,1805
727.614500,1815
727.615000,1813
727.615500,1815
727.616000,1835
727.616500,1821
727.617000,1806
727.617500,1805
727.618000,1799
727.618500,1772
727.619000,1757
727.619500,1794
727.620000,1824
727.620500,1829
727.621000,1834
727.621500,1830
727.622000,1810
727.622500,1813
727.623000,1807
727.623500,1791
727.624000,1782
727.624500,1806
727.625000,1800
727.625500,1795
727.626000,1803
727.626500,1806
727.627000,1790
727.627500,1810
727.628000,1835
727.628500,1830
727.629000,1823
727.629500,1830
727.630000,1822
727.630500,1834
727.631000,1846
727.631500,1828
727.632000,1797
727.632500,1820
727.633000,1820
727.633500,1816
727.634000,1818
727.634500,1844
727.635000,1857
727.635500,1837
727.636000,1830
727.636500,1844
727.637000,1832
727.637500,1830
727.638000,1839
727.638500,1808
727.639000,1771
727.639500,1758
727.640000,1757
727.640500,1759
727.641000,1803
727.641500,1857
727.642000,1847
727.642500,1817
727.643000,1805
727.643500,1765
727.644000,1727
727.644500,1704
727.645000,1700
727.645500,1734
727.646000,1805
727.646500,1822
727.647000,1811
727.647500,1845
727.648000,1876
727.648500,1875
727.649000,1832
727.649500,1821
727.650000,1802
727.650500,1769
727.651000,1763
727.651500,1799
727.652000,1803
727.652500,1801
727.653000,1814
727.653500,1825
727.654000,1809
727.654500,1809
727.655000,1807
727.655500,1807
727.656000,1821
727.656500,1848
727.657000,1848
727.657500,1872
727.658000,1888
727.658500,1872
727.659000,1813
727.659500,1790
727.660000,1724
727.660500,1693
727.661000,1706
727.661500,1740
727.662000,1759
727.662500,1784
727.663000,1819
727.663500,1828
727.664000,1805
727.664500,1797
727.665000,1805
727.665500,1792
727.666000,1783
727.666500,1798
727.667000,1807
727.667500,1798
727.668000,1818
727.668500,1834
727.669000,1824
727.669500,1823
727.670000,1823
727.670500,1802
727.671000,1799
727.671500,1824
727.672000,1849
727.672500,1850
727.673000,1844
727.673500,1879
727.674000,1883
727.674500,1883
727.675000,1885
727.675500,1846
727.676000,1791
727.676500,1774
727.677000,1756
727.677500,1754
727.678000,1763
727.678500,1766
727.679000,1744
727.679500,1753
727.680000,1801
727.680500,1837
727.681000,1820
727.681500,1821
727.682000,1820
727.682500,1814
727.683000,1813
727.683500,1812
727.684000,1799
727.684500,1788
727.685000,1789
727.685500,1791
727.686000,1799
727.686500,1816
727.687000,1796
727.687500,1786
727.688000,1800
727.688500,1820
727.689000,1816
727.689500,1818
727.690000,1825
727.690500,1803
727.691000,1785
727.691500,1837
727.692000,1866
727.692500,1845
727.693000,1811
727.693500,1803
727.694000,1797
727.694500,1772
727.695000,1791
727.695500,1800
727.696000,1787
727.696500,1780
727.697000,1792
727.697500,1781
727.698000,1768
727.698500,1791
727.699000,1813
727.699500,1818
727.700000,1839
727.700500,1829
727.701000,1810
727.701500,1812
727.702000,1843
727.702500,1858
727.703000,1861
727.703500,1882
727.704000,1886
727.704500,1845
727.705000,1792
727.705500,1749
727.706000,1752
727.706500,1795
727.707000,1870
727.707500,1876
727.708000,1862
727.708500,1851
727.709000,1813
727.709500,1765
727.710000,1720
727.710500,1718
727.711000,1712
727.711500,1743
727.712000,1788
727.712500,1808
727.713000,1791
727.713500,1800
727.714000,1802
727.714500,1789
727.715000,1797
727.715500,1855
727.716000,1863
727.716500,1850
727.717000,1839
727.717500,1810
727.718000,1745
727.718500,1731
727.719000,1741
727.719500,1781
727.720000,1835
727.720500,1886
727.721000,1871
727.721500,1823
727.722000,1803
727.722500,1797
727.723000,1782
727.723500,1810
727.724000,1811
727.724500,1802
727.725000,1788
727.725500,1795
727.726000,1779
727.726500,1773
727.727000,1786
727.727500,1801
727.728000,1787
727.728500,1767
727.729000,1780
727.729500,1782
727.730000,1783
727.730500,1801
727.731000,1818
727.731500,1822
727.732000,1839
727.732500,1834
727.733000,1792
727.733500,1759
727.734000,1748
727.734500,1739
727.735000,1728
727.735500,1747
727.736000,1792
727.736500,1811
727.737000,1844
727.737500,1887
727.738000,1873
727.738500,1861
727.739000,1865
727.739500,1863
727.740000,1876
727.740500,1904
727.741000,1907
727.741500,1887
727.742000,1878
727.742500,1886
727.743000,1838
727.743500,1792
727.744000,1770
727.744500,1773
727.745000,1764
727.745500,1780
727.746000,1777
727.746500,1753
727.747000,1747
727.747500,1766
727.748000,1764
727.748500,1756
727.749000,1772
727.749500,1820
727.750000,1854
727.750500,1878
727.751000,1875
727.751500,1869
727.752000,1847
727.752500,1828
727.753000,1784
727.753500,1809
727.754000,1845
727.754500,1860
727.755000,1817
727.755500,1758
727.756000,1738
727.756500,1712
727.757000,1728
727.757500,1769
727.758000,1790
727.758500,1784
727.759000,1773
727.759500,1753
727.760000,1750
727.760500,1783
727.761000,1836
727.761500,1844
727.762000,1858
727.762500,1881
727.763000,1875
727.763500,1834
727.764000,1800
727.764500,1774
727.765000,1738
727.765500,1729
727.766000,1749
727.766500,1756
727.767000,1759
727.767500,1782
727.768000,1785
727.768500,1788
727.769000,1820
727.769500,1830
727.770000,1815
727.770500,1799
727.771000,1781
727.771500,1775
727.772000,1784
727.772500,1846
727.773000,1868
727.773500,1853
727.774000,1848
727.774500,1852
727.775000,1829
727.775500,1812
727.776000,1815
727.776500,1804
727.777000,1787
727.777500,1803
727.778000,1838
727.778500,1875
727.779000,1915
727.779500,1945
727.780000,1921
727.780500,1880
727.781000,1847
727.781500,1772
727.782000,1678
727.782500,1634
727.783000,1672
727.783500,1722
727.784000,1771
727.784500,1804
727.785000,1797
727.785500,1766
727.786000,1795
727.786500,1832
727.787000,1837
727.787500,1850
727.788000,1863
727.788500,1831
727.789000,1786
727.789500,1772
727.790000,1800
727.790500,1815
727.791000,1824
727.791500,1840
727.792000,1832
727.792500,1802
727.793000,1805
727.793500,1805
727.794000,1779
727.794500,1734
727.795000,1712
727.795500,1727
727.796000,1760
727.796500,1784
727.797000,1781
727.797500,1786
727.798000,1801
727.798500,1813
727.799000,1805
727.799500,1819
727.800000,1833
727.800500,1846
727.801000,1858
727.801500,1875
727.802000,1876
727.802500,1874
727.803000,1873
727.803500,1859
727.804000,1823
727.804500,1810
727.805000,1796
727.805500,1744
727.806000,1711
727.806500,1725
727.807000,1756
727.807500,1791
727.808000,1817
727.808500,1818
727.809000,1793
727.809500,1787
727.810000,1818
727.810500,1816
727.811000,1818
727.811500,1834
727.812000,1833
727.812500,1810
727.813000,1831
727.813500,1839
727.814000,1818
727.814500,1800
727.815000,1805
727.815500,1792
727.816000,1798
727.816500,1824
727.817000,1832
727.817500,1812
727.818000,1814
727.818500,1817
727.819000,1811
727.819500,1812
727.820000,1828
727.820500,1829
727.821000,1818
727.821500,1822
727.822000,1849
727.822500,1860
727.823000,1876
727.823500,1861
727.824000,1856
727.824500,1850
727.825000,1843
727.825500,1818
727.826000,1771
727.826500,1757
727.827000,1759
727.827500,1751
727.828000,1742
727.828500,1760
727.829000,1771
727.829500,1812
727.830000,1857
727.830500,1858
727.831000,1814
727.831500,1812
727.832000,1811
727.832500,1797
727.833000,1776
727.833500,1768
727.834000,1747
727.834500,1769
727.835000,1838
727.835500,1874
727.836000,1863
727.836500,1867
727.837000,1824
727.837500,1768
727.838000,1722
727.838500,1730
727.839000,1743
727.839500,1736
727.840000,1753
727.840500,1769
727.841000,1800
727.841500,1824
727.842000,1858
727.842500,1862
727.843000,1849
727.843500,1857
727.844000,1826
727.844500,1786
727.845000,1793
727.845500,1789
727.846000,1773
727.846500,1774
727.847000,1805
727.847500,1805
727.848000,1794
727.848500,1808
727.849000,1797
727.849500,1779
727.850000,1787
727.850500,1800
727.851000,1805
727.851500,1821
727.852000,1844
727.852500,1858
727.853000,1843
727.853500,1838
727.854000,1807
727.854500,1762
727.855000,1757
727.855500,1789
727.856000,1791
727.856500,1783
727.857000,1791
727.857500,1801
727.858000,1805
727.858500,1829
727.859000,1842
727.859500,1839
727.860000,1841
727.860500,1866
727.861000,1824
727.861500,1750
727.862000,1742
727.862500,1770
727.863000,1775
727.863500,1826
727.864000,1848
727.864500,1828
727.865000,1787
727.865500,1798
727.866000,1802
727.866500,1819
727.867000,1851
727.867500,1865
727.868000,1837
727.868500,1812
727.869000,1822
727.869500,1805
727.870000,1780
727.870500,1789
727.871000,1791
727.871500,1782
727.872000,1814
727.872500,1829
727.873000,1804
727.873500,1782
727.874000,1787
727.874500,1783
727.875000,1791
727.875500,1819
727.876000,1842
727.876500,1834
727.877000,1853
727.877500,1851
727.878000,1825
727.878500,1809
727.879000,1805
727.879500,1790
727.880000,1808
727.880500,1851
727.881000,1865
727.881500,1856
727.882000,1876
727.882500,1853
727.883000,1760
727.883500,1687
727.884000,1705
727.884500,1749
727.885000,1766
727.885500,1806
727.886000,1826
727.886500,1811
727.887000,1799
727.887500,1817
727.888000,1801
727.888500,1794
727.889000,1799
727.889500,1790
727.890000,1772
727.890500,1798
727.891000,1819
727.891500,1805
727.892000,1789
727.892500,1805
727.893000,1814
727.893500,1833
727.894000,1844
727.894500,1839
727.895000,1820
727.895500,1829
727.896000,1797
727.896500,1759
727.897000,1733
727.897500,1755
727.898000,1776
727.898500,1781
727.899000,1787
727.899500,1795
727.900000,1798
727.900500,1815
727.901000,1837
727.901500,1833
727.902000,1832
727.902500,1824
727.903000,1814
727.903500,1777
727.904000,1767
727.904500,1757
727.905000,1764
727.905500,1782
727.906000,1813
727.906500,1810
727.907000,1819
727.907500,1854
727.908000,1856
727.908500,1835
727.909000,1833
727.909500,1850
727.910000,1832
727.910500,1807
727.911000,1789
727.911500,1758
727.912000,1769
727.912500,1834
727.913000,1864
727.913500,1831
727.914000,1810
727.914500,1827
727.915000,1819
727.915500,1816
727.916000,1836
727.916500,1843
727.917000,1826
727.917500,1827
727.918000,1820
727.918500,1796
727.919000,1781
727.919500,1794
727.920000,1788
727.920500,1787
727.921000,1801
727.921500,1817
727.922000,1803
727.922500,1818
727.923000,1824
727.923500,1810
727.924000,1808
727.924500,1836
727.925000,1826
727.925500,1817
727.926000,1821
727.926500,1827
727.927000,1814
727.927500,1825
727.928000,1792
727.928500,1755
727.929000,1737
727.929500,1767
727.930000,1768
727.930500,1783
727.931000,1808
727.931500,1833
727.932000,1857
727.932500,1859
727.933000,1871
727.933500,1855
727.934000,1836
727.934500,1825
727.935000,1792
727.935500,1760
727.936000,1785
727.936500,1791
727.937000,1769
727.937500,1793
727.938000,1854
727.938500,1859
727.939000,1837
727.939500,1836
727.940000,1832
727.940500,1783
727.941000,1759
727.941500,1735
727.942000,1740
727.942500,1775
727.943000,1837
727.943500,1855
727.944000,1852
727.944500,1856
727.945000,1857
727.945500,1817
727.946000,1783
727.946500,1792
727.947000,1800
727.947500,1796
727.948000,1797
727.948500,1806
727.949000,1776
727.949500,1769
727.950000,1747
727.950500,1734
727.951000,1736
727.951500,1770
727.952000,1779
727.952500,1773
727.953000,1821
727.953500,1850
727.954000,1834
727.954500,1836
727.955000,1822
727.955500,1773
727.956000,1747
727.956500,1774
727.957000,1824
727.957500,1826
727.958000,1841
727.958500,1845
727.959000,1825
727.959500,1808
727.960000,1810
727.960500,1791
727.961000,1791
727.961500,1818
727.962000,1821
727.962500,1801
727.963000,1800
727.963500,1804
727.964000,1797
727.964500,1797
727.965000,1815
727.965500,1800
727.966000,1798
727.966500,1819
727.967000,1822
727.967500,1821
727.968000,1817
727.968500,1806
727.969000,1775
727.969500,1760
727.970000,1763
727.970500,1771
727.971000,1802
727.971500,1819
727.972000,1828
727.972500,1839
727.973000,1839
727.973500,1835
727.974000,1822
727.974500,1813
727.975000,1822
727.975500,1820
727.976000,1807
727.976500,1817
727.977000,1834
727.977500,1817
727.978000,1787
727.978500,1768
727.979000,1746
727.979500,1782
727.980000,1838
727.980500,1827
727.981000,1791
727.981500,1844
727.982000,1858
727.982500,1850
727.983000,1855
727.983500,1865
727.984000,1844
727.984500,1792
727.985000,1791
727.985500,1815
727.986000,1819
727.986500,1815
727.987000,1811
727.987500,1781
727.988000,1765
727.988500,1756
727.989000,1731
727.989500,1715
727.990000,1750
727.990500,1790
727.991000,1835
727.991500,1869
727.992000,1897
727.992500,1885
727.993000,1829
727.993500,1818
727.994000,1854
727.994500,1867
727.995000,1821
727.995500,1749
727.996000,1713
727.996500,1729
727.997000,1761
727.997500,1784
727.998000,1781
727.998500,1799
727.999000,1797
727.999500,1784
728.000000,1782
728.000500,1798
728.001000,1781
728.001500,1799
728.002000,1861
728.002500,1889
728.003000,1869
728.003500,1855
728.004000,1809
728.004500,1763
728.005000,1757
728.005500,1791
728.006000,1765
728.006500,1754
728.007000,1779
728.007500,1801
728.008000,1771
728.008500,1793
728.009000,1786
728.009500,1784
728.010000,1786
728.010500,1829
728.011000,1854
728.011500,1830
728.012000,1829
728.012500,1824
728.013000,1806
728.013500,1808
728.014000,1828
728.014500,1814
728.015000,1807
728.015500,1815
728.016000,1815
728.016500,1798
728.017000,1817
728.017500,1852
728.018000,1859
728.018500,1849
728.019000,1844
728.019500,1818
728.020000,1790
728.020500,1780
728.021000,1781
728.021500,1765
728.022000,1772
728.022500,1817
728.023000,1838
728.023500,1857
728.024000,1865
728.024500,1839
728.025000,1817
728.025500,1792
728.026000,1773
728.026500,1779
728.027000,1799
728.027500,1836
728.028000,1820
728.028500,1806
728.029000,1807
728.029500,1779
728.030000,1721
728.030500,1730
728.031000,1753
728.031500,1773
728.032000,1811
728.032500,1844
728.033000,1836
728.033500,1822
728.034000,1827
728.034500,1834
728.035000,1840
728.035500,1853
728.036000,1877
728.036500,1886
728.037000,1867
728.037500,1845
728.038000,1790
728.038500,1743
728.039000,1735
728.039500,1744
728.040000,1749
728.040500,1783
728.041000,1807
728.041500,1809
728.042000,1816
728.042500,1836
728.043000,1829
728.043500,1806
728.044000,1794
728.044500,1790
728.045000,1775
728.045500,1788
728.046000,1806
728.046500,1821
728.047000,1831
728.047500,1848
728.048000,1823
728.048500,1821
728.049000,1809
728.049500,1807
728.050000,1807
728.050500,1807
728.051000,1823
728.051500,1818
728.052000,1807
728.052500,1800
728.053000,1783
728.053500,1783
728.054000,1810
728.054500,1812
728.055000,1782
728.055500,1767
728.056000,1775
728.056500,1759
728.057000,1754
728.057500,1773
728.058000,1792
728.058500,1787
728.059000,1808
728.059500,1826
728.060000,1824
728.060500,1820
728.061000,1829
728.061500,1821
728.062000,1819
728.062500,1849
728.063000,1872
728.063500,1858
728.064000,1846
728.064500,1862
728.065000,1841
728.065500,1825
728.066000,1886
728.066500,1903
728.067000,1874
728.067500,1842
728.068000,1818
728.068500,1749
728.069000,1679
728.069500,1621
728.070000,1639
728.070500,1692
728.071000,1731
728.071500,1743
728.072000,1737
728.072500,1796
728.073000,1853
728.073500,1856
728.074000,1853
728.074500,1876
728.075000,1886
728.075500,1883
728.076000,1881
728.076500,1864
728.077000,1823
728.077500,1818
728.078000,1815
728.078500,1780
728.079000,1758
728.079500,1770
728.080000,1777
728.080500,1792
728.081000,1781
728.081500,1731
728.082000,1704
728.082500,1788
728.083000,1849
728.083500,1854
728.084000,1853
728.084500,1860
728.085000,1828
728.085500,1804
728.086000,1811
728.086500,1811
728.087000,1792
728.087500,1801
728.088000,1825
728.088500,1831
728.089000,1833
728.089500,1852
728.090000,1820
728.090500,1762
728.091000,1754
728.091500,1804
728.092000,1820
728.092500,1801
728.093000,1771
728.093500,1748
728.094000,1758
728.094500,1805
728.095000,1805
728.095500,1797
728.096000,1804
728.096500,1799
728.097000,1780
728.097500,1776
728.098000,1783
728.098500,1761
728.099000,1756
728.099500,1804
728.100000,1840
728.100500,1845
728.101000,1842
728.101500,1848
728.102000,1860
728.102500,1890
728.103000,1891
728.103500,1867
728.104000,1842
728.104500,1830
728.105000,1784
728.105500,1784
728.106000,1800
728.106500,1822
728.107000,1802
728.107500,1783
728.108000,1776
728.108500,1740
728.109000,1734
728.109500,1796
728.110000,1822
728.110500,1800
728.111000,1806
728.111500,1806
728.112000,1790
728.112500,1783
728.113000,1816
728.113500,1843
728.114000,1854
728.114500,1868
728.115000,1873
728.115500,1854
728.116000,1874
728.116500,1886
728.117000,1847
728.117500,1796
728.118000,1753
728.118500,1695
728.119000,1676
728.119500,1711
728.120000,1760
728.120500,1780
728.121000,1835
728.121500,1870
728.122000,1859
728.122500,1857
728.123000,1863
728.123500,1844
728.124000,1816
728.124500,1787
728.125000,1760
728.125500,1745
728.126000,1776
728.126500,1814
728.127000,1799
728.127500,1773
728.128000,1772
728.128500,1762
728.129000,1745
728.129500,1755
728.130000,1785
728.130500,1799
728.131000,1839
728.131500,1867
728.132000,1853
728.132500,1798
728.133000,1764
728.133500,1745
728.134000,1753
728.134500,1807
728.135000,1879
728.135500,1923
728.136000,1934
728.136500,1910
728.137000,1828
728.137500,1775
728.138000,1780
728.138500,1806
728.139000,1792
728.139500,1804
728.140000,1810
728.140500,1782
728.141000,1751
728.141500,1798
728.142000,1860
728.142500,1873
728.143000,1865
728.143500,1836
728.144000,1794
728.144500,1798
728.145000,1794
728.145500,1790
728.146000,1786
728.146500,1772
728.147000,1731
728.147500,1691
728.148000,1679
728.148500,1715
728.149000,1782
728.149500,1884
728.150000,1938
728.150500,1954
728.151000,1946
728.151500,1912
728.152000,1829
728.152500,1789
728.153000,1812
728.153500,1843
728.154000,1808
728.154500,1782
728.155000,1755
728.155500,1737
728.156000,1748
728.156500,1779
728.157000,1794
728.157500,1792
728.158000,1800
728.158500,1809
728.159000,1789
728.159500,1781
728.160000,1758
728.160500,1734
728.161000,1766
728.161500,1829
728.162000,1816
728.162500,1804
728.163000,1818
728.163500,1829
728.164000,1818
728.164500,1822
728.165000,1850
728.165500,1863
728.166000,1858
728.166500,1865
728.167000,1845
728.167500,1820
728.168000,1798
728.168500,1773
728.169000,1732
728.169500,1743
728.170000,1731
728.170500,1725
728.171000,1755
728.171500,1807
728.172000,1813
728.172500,1817
728.173000,1811
728.173500,1806
728.174000,1779
728.174500,1757
728.175000,1759
728.175500,1752
728.176000,1755
728.176500,1786
728.177000,1817
728.177500,1830
728.178000,1874
728.178500,1891
728.179000,1878
728.179500,1868
728.180000,1875
728.180500,1828
728.181000,1771
728.181500,1766
728.182000,1775
728.182500,1785
728.183000,1830
728.183500,1853
728.184000,1857
728.184500,1856
728.185000,1862
728.185500,1822
728.186000,1775
728.186500,1774
728.187000,1794
728.187500,1818
728.188000,1837
728.188500,1826
728.189000,1808
728.189500,1825
728.190000,1840
728.190500,1804
728.191000,1771
728.191500,1770
728.192000,1777
728.192500,1767
728.193000,1766
728.193500,1801
728.194000,1807
728.194500,1783
728.195000,1773
728.195500,1761
728.196000,1773
728.196500,1785
728.197000,1794
728.197500,1796
728.198000,1797
728.198500,1813
728.199000,1815
728.199500,1804
728.200000,1810
728.200500,1850
728.201000,1871
728.201500,1890
728.202000,1878
728.202500,1817
728.203000,1752
728.203500,1747
728.204000,1753
728.204500,1774
728.205000,1791
728.205500,1785
728.206000,1764
728.206500,1792
728.207000,1814
728.207500,1819
728.208000,1828
728.208500,1853
728.209000,1829
728.209500,1823
728.210000,1842
728.210500,1861
728.211000,1843
728.211500,1818
728.212000,1759
728.212500,1753
728.213000,1789
728.213500,1818
728.214000,1800
728.214500,1791
728.215000,1791
728.215500,1808
728.216000,1815
728.216500,1847
728.217000,1870
728.217500,1871
728.218000,1858
728.218500,1837
728.219000,1788
728.219500,1752
728.220000,1764
728.220500,1783
728.221000,1769
728.221500,1780
728.222000,1780
728.222500,1756
728.223000,1755
728.223500,1786
728.224000,1819
728.224500,1845
728.225000,1879
728.225500,1879
728.226000,1846
728.226500,1818
728.227000,1798
728.227500,1769
728.228000,1746
728.228500,1737
728.229000,1754
728.229500,1761
728.230000,1791
728.230500,1814
728.231000,1812
728.231500,1803
728.232000,1800
728.232500,1785
728.233000,1801
728.233500,1836
728.234000,1846
728.234500,1836
728.235000,1868
728.235500,1874
728.236000,1841
728.236500,1807
728.237000,1820
728.237500,1851
728.238000,1871
728.238500,1907
728.239000,1903
728.239500,1860
728.240000,1833
728.240500,1822
728.241000,1793
728.241500,1770
728.242000,1753
728.242500,1721
728.243000,1731
728.243500,1762
728.244000,1778
728.244500,1774
728.245000,1796
728.245500,1780
728.246000,1777
728.246500,1784
728.247000,1791
728.247500,1736
728.248000,1701
728.248500,1724
728.249000,1773
728.249500,1792
728.250000,1810
728.250500,1856
728.251000,1858
728.251500,1851
728.252000,1852
728.252500,1843
728.253000,1793
728.253500,1767
728.254000,1781
728.254500,1805
728.255000,1833
728.255500,1880
728.256000,1877
728.256500,1884
728.257000,1899
728.257500,1885
728.258000,1846
728.258500,1822
728.259000,1781
728.259500,1741
728.260000,1728
728.260500,1749
728.261000,1749
728.261500,1740
728.262000,1759
728.262500,1782
728.263000,1778
728.263500,1818
728.264000,1845
728.264500,1852
728.265000,1862
728.265500,1866
728.266000,1842
728.266500,1765
728.267000,1710
728.267500,1710
728.268000,1741
728.268500,1771
728.269000,1808
728.269500,1815
728.270000,1810
728.270500,1821
728.271000,1819
728.271500,1802
728.272000,1804
728.272500,1794
728.273000,1786
728.273500,1777
728.274000,1802
728.274500,1815
728.275000,1818
728.275500,1828
728.276000,1830
728.276500,1819
728.277000,1828
728.277500,1838
728.278000,1818
728.278500,1814
728.279000,1818
728.279500,1794
728.280000,1791
728.280500,1803
728.281000,1799
728.281500,1753
728.282000,1747
728.282500,1736
728.283000,1806
728.283500,1876
728.284000,1883
728.284500,1832
728.285000,1749
728.285500,1698
728.286000,1709
728.286500,1783
728.287000,1839
728.287500,1873
728.288000,1859
728.288500,1821
728.289000,1788
728.289500,1770
728.290000,1770
728.290500,1821
728.291000,1871
728.291500,1888
728.292000,1869
728.292500,1866
728.293000,1837
728.293500,1827
728.294000,1857
728.294500,1855
728.295000,1816
728.295500,1801
728.296000,1783
728.296500,1766
728.297000,1746
728.297500,1801
728.298000,1845
728.298500,1853
728.299000,1852
728.299500,1843
728.300000,1802
728.300500,1768
728.301000,1700
728.301500,1694
728.302000,1749
728.302500,1849
728.303000,1897
728.303500,1892
728.304000,1885
728.304500,1870
728.305000,1822
728.305500,1782
728.306000,1785
728.306500,1810
728.307000,1850
728.307500,1877
728.308000,1859
728.308500,1802
728.309000,1775
728.309500,1782
728.310000,1784
728.310500,1782
728.311000,1796
728.311500,1775
728.312000,1755
728.312500,1750
728.313000,1719
728.313500,1681
728.314000,1687
728.314500,1752
728.315000,1836
728.315500,1903
728.316000,1949
728.316500,1933
728.317000,1908
728.317500,1906
728.318000,1879
728.318500,1829
728.319000,1812
728.319500,1772
728.320000,1746
728.320500,1740
728.321000,1743
728.321500,1745
728.322000,1738
728.322500,1758
728.323000,1768
728.323500,1768
728.324000,1785
728.324500,1827
728.325000,1835
728.325500,1832
728.326000,1839
728.326500,1835
728.327000,1806
728.327500,1823
728.328000,1838
728.328500,1826
728.329000,1807
728.329500,1821
728.330000,1811
728.330500,1801
728.331000,1829
728.331500,1847
728.332000,1814
728.332500,1821
728.333000,1792
728.333500,1755
728.334000,1753
728.334500,1805
728.335000,1827
728.335500,1817
728.336000,1810
728.336500,1785
728.337000,1733
728.337500,1730
728.338000,1795
728.338500,1820
728.339000,1834
728.339500,1860
728.340000,1864
728.340500,1835
728.341000,1841
728.341500,1848
728.342000,1840
728.342500,1846
728.343000,1840
728.343500,1812
728.344000,1797
728.344500,1790
728.345000,1801
728.345500,1797
728.346000,1809
728.346500,1808
728.347000,1745
728.347500,1669
728.348000,1682
728.348500,1756
728.349000,1837
728.349500,1843
728.350000,1828
728.350500,1819
728.351000,1816
728.351500,1826
728.352000,1810
728.352500,1781
728.353000,1755
728.353500,1750
728.354000,1749
728.354500,1806
728.355000,1844
728.355500,1864
728.356000,1889
728.356500,1893
728.357000,1841
728.357500,1821
728.358000,1815
728.358500,1797
728.359000,1767
728.359500,1795
728.360000,1820
728.360500,1809
728.361000,1792
728.361500,1823
728.362000,1838
728.362500,1844
728.363000,1853
728.363500,1893
728.364000,1891
728.364500,1906
728.365000,1910
728.365500,1887
728.366000,1836
728.366500,1773
728.367000,1736
728.367500,1727
728.368000,1733
728.368500,1737
728.369000,1778
728.369500,1816
728.370000,1834
728.370500,1824
728.371000,1808
728.371500,1806
728.372000,1776
728.372500,1741
728.373000,1754
728.373500,1758
728.374000,1732
728.374500,1723
728.375000,1755
728.375500,1762
728.376000,1758
728.376500,1778
728.377000,1795
728.377500,1792
728.378000,1804
728.378500,1832
728.379000,1824
728.379500,1815
728.380000,1843
728.380500,1859
728.381000,1860
728.381500,1861
728.382000,1855
728.382500,1823
728.383000,1787
728.383500,1783
728.384000,1775
728.384500,1755
728.385000,1764
728.385500,1775
728.386000,1761
728.386500,1778
728.387000,1794
728.387500,1811
728.388000,1809
728.388500,1822
728.389000,1823
728.389500,1839
728.390000,1857
728.390500,1866
728.391000,1854
728.391500,1876
728.392000,1880
728.392500,1842
728.393000,1780
728.393500,1765
728.394000,1757
728.394500,1752
728.395000,1759
728.395500,1752
728.396000,1730
728.396500,1772
728.397000,1797
728.397500,1806
728.398000,1798
728.398500,1830
728.399000,1900
728.399500,1956
728.400000,1948
728.400500,1899
728.401000,1825
728.401500,1769
728.402000,1748
728.402500,1713
728.403000,1725
728.403500,1761
728.404000,1768
728.404500,1759
728.405000,1791
728.405500,1799
728.406000,1777
728.406500,1780
728.407000,1804
728.407500,1789
728.408000,1784
728.408500,1822
728.409000,1852
728.409500,1847
728.410000,1838
728.410500,1817
728.411000,1776
728.411500,1768
728.412000,1781
728.412500,1764
728.413000,1738
728.413500,1739
728.414000,1732
728.414500,1733
728.415000,1794
728.415500,1843
728.416000,1825
728.416500,1852
728.417000,1908
728.417500,1917
728.418000,1888
728.418500,1842
728.419000,1764
728.419500,1709
728.420000,1730
728.420500,1808
728.421000,1841
728.421500,1853
728.422000,1869
728.422500,1862
728.423000,1827
728.423500,1817
728.424000,1802
728.424500,1768
728.425000,1761
728.425500,1792
728.426000,1793
728.426500,1804
728.427000,1826
728.427500,1833
728.428000,1821
728.428500,1830
728.429000,1824
728.429500,1809
728.430000,1804
728.430500,1823
728.431000,1814
728.431500,1814
728.432000,1832
728.432500,1858
728.433000,1844
728.433500,1812
728.434000,1792
728.434500,1780
728.435000,1772
728.435500,1797
728.436000,1841
728.436500,1825
728.437000,1810
728.437500,1786
728.438000,1777
728.438500,1796
728.439000,1815
728.439500,1830
728.440000,1844
728.440500,1849
728.441000,1800
728.441500,1730
728.442000,1723
728.442500,1755
728.443000,1780
728.443500,1793
728.444000,1812
728.444500,1834
728.445000,1849
728.445500,1869
728.446000,1894
728.446500,1872
728.447000,1876
728.447500,1837
728.448000,1811
728.448500,1794
728.449000,1798
728.449500,1777
728.450000,1732
728.450500,1733
728.451000,1747
728.451500,1747
728.452000,1753
728.452500,1783
728.453000,1772
728.453500,1765
728.454000,1756
728.454500,1781
728.455000,1827
728.455500,1859
728.456000,1855
728.456500,1838
728.457000,1818
728.457500,1822
728.458000,1789
728.458500,1764
728.459000,1781
728.459500,1804
728.460000,1802
728.460500,1850
728.461000,1864
728.461500,1872
728.462000,1887
728.462500,1898
728.463000,1868
728.463500,1835
728.464000,1837
728.464500,1826
728.465000,1785
728.465500,1766
728.466000,1755
728.466500,1725
728.467000,1730
728.467500,1773
728.468000,1801
728.468500,1799
728.469000,1814
728.469500,1834
728.470000,1808
728.470500,1810
728.471000,1829
728.471500,1806
728.472000,1793
728.472500,1821
728.473000,1835
728.473500,1793
728.474000,1769
728.474500,1774
728.475000,1794
728.475500,1809
728.476000,1849
728.476500,1867
728.477000,1865
728.477500,1882
728.478000,1876
728.478500,1842
728.479000,1806
728.479500,1775
728.480000,1710
728.480500,1700
728.481000,1770
728.481500,1799
728.482000,1779
728.482500,1768
728.483000,1763
728.483500,1761
728.484000,1789
728.484500,1862
728.485000,1886
728.485500,1870
728.486000,1857
728.486500,1873
728.487000,1850
728.487500,1842
728.488000,1817
728.488500,1774
728.489000,1741
728.489500,1745
728.490000,1733
728.490500,1724
728.491000,1747
728.491500,1771
728.492000,1779
728.492500,1805
728.493000,1801
728.493500,1790
728.494000,1786
728.494500,1807
728.495000,1821
728.495500,1816
728.496000,1825
728.496500,1787
728.497000,1736
728.497500,1782
728.498000,1900
728.498500,1944
728.499000,1945
728.499500,1925
728.500000,1889
728.500500,1857
728.501000,1854
728.501500,1824
728.502000,1752
728.502500,1718
728.503000,1740
728.503500,1737
728.504000,1718
728.504500,1731
728.505000,1753
728.505500,1759
728.506000,1763
728.506500,1784
728.507000,1777
728.507500,1783
728.508000,1805
728.508500,1811
728.509000,1809
728.509500,1844
728.510000,1856
728.510500,1854
728.511000,1857
728.511500,1886
728.512000,1884
728.512500,1887
728.513000,1888
728.513500,1875
728.514000,1873
728.514500,1910
728.515000,1893
728.515500,1836
728.516000,1764
728.516500,1734
728.517000,1712
728.517500,1698
728.518000,1722
728.518500,1745
728.519000,1736
728.519500,1729
728.520000,1723
728.520500,1701
728.521000,1683
728.521500,1709
728.522000,1744
728.522500,1783
728.523000,1829
728.523500,1861
728.524000,1841
728.524500,1845
728.525000,1853
728.525500,1852
728.526000,1861
728.526500,1897
728.527000,1897
728.527500,1869
728.528000,1833
728.528500,1799
728.529000,1772
728.529500,1782
728.530000,1803
728.530500,1790
728.531000,1756
728.531500,1746
728.532000,1755
728.532500,1784
728.533000,1842
728.533500,1844
728.534000,1822
728.534500,1801
728.535000,1826
728.535500,1839
728.536000,1832
728.536500,1833
728.537000,1823
728.537500,1795
728.538000,1817
728.538500,1871
728.539000,1902
728.539500,1954
728.540000,2001
728.540500,1993
728.541000,1961
728.541500,1905
728.542000,1790
728.542500,1671
728.543000,1679
728.543500,1684
728.544000,1686
728.544500,1666
728.545000,1648
728.545500,1589
728.546000,1568
728.546500,1654
728.547000,1750
728.547500,1827
728.548000,1897
728.548500,1910
728.549000,1888
728.549500,1839
728.550000,1821
728.550500,1802
728.551000,1776
728.551500,1785
728.552000,1805
728.552500,1817
728.553000,1844
728.553500,1904
728.554000,1896
728.554500,1858
728.555000,1801
728.555500,1704
728.556000,1586
728.556500,1608
728.557000,1760
728.557500,1893
728.558000,1920
728.558500,1932
728.559000,1896
728.559500,1873
728.560000,1871
728.560500,1862
728.561000,1832
728.561500,1829
728.562000,1801
728.562500,1761
728.563000,1750
728.563500,1792
728.564000,1805
728.564500,1803
728.565000,1821
728.565500,1819
728.566000,1790
728.566500,1793
728.567000,1799
728.567500,1790
728.568000,1788
728.568500,1811
728.569000,1812
728.569500,1806
728.570000,1822
728.570500,1837
728.571000,1822
728.571500,1838
728.572000,1839
728.572500,1811
728.573000,1803
728.573500,1822
728.574000,1786
728.574500,1726
728.575000,1759
728.575500,1818
728.576000,1820
728.576500,1800
728.577000,1824
728.577500,1834
728.578000,1835
728.578500,1826
728.579000,1794
728.579500,1780
728.580000,1816
728.580500,1838
728.581000,1817
728.581500,1803
728.582000,1815
728.582500,1809
728.583000,1808
728.583500,1808
728.584000,1782
728.584500,1764
728.585000,1770
728.585500,1778
728.586000,1778
728.586500,1795
728.587000,1817
728.587500,1816
728.588000,1803
728.588500,1810
728.589000,1801
728.589500,1772
728.590000,1790
728.590500,1804
728.591000,1813
728.591500,1834
728.592000,1873
728.592500,1862
728.593000,1867
728.593500,1897
728.594000,1894
728.594500,1854
728.595000,1832
728.595500,1826
728.596000,1788
728.596500,1775
728.597000,1772
728.597500,1759
728.598000,1791
728.598500,1831
728.599000,1839
728.599500,1820
728.600000,1818
728.600500,1824
728.601000,1798
728.601500,1776
728.602000,1778
728.602500,1765
728.603000,1744
728.603500,1787
728.604000,1821
728.604500,1814
728.605000,1805
728.605500,1813
728.606000,1771
728.606500,1727
728.607000,1731
728.607500,1764
728.608000,1790
728.608500,1816
728.609000,1810
728.609500,1798
728.610000,1784
728.610500,1801
728.611000,1797
728.611500,1793
728.612000,1803
728.612500,1786
728.613000,1760
728.613500,1773
728.614000,1760
728.614500,1711
728.615000,1749
728.615500,1859
728.616000,1882
728.616500,1842
728.617000,1820
728.617500,1822
728.618000,1814
728.618500,1824
728.619000,1816
728.619500,1807
728.620000,1812
728.620500,1834
728.621000,1828
728.621500,1834
728.622000,1852
728.622500,1864
728.623000,1858
728.623500,1853
728.624000,1846
728.624500,1821
728.625000,1802
728.625500,1790
728.626000,1762
728.626500,1775
728.627000,1815
728.627500,1843
728.628000,1828
728.628500,1829
728.629000,1820
728.629500,1767
728.630000,1716
728.630500,1711
728.631000,1742
728.631500,1742
728.632000,1754
728.632500,1770
728.633000,1772
728.633500,1794
728.634000,1853
728.634500,1871
728.635000,1875
728.635500,1892
728.636000,1886
728.636500,1844
728.637000,1811
728.637500,1764
728.638000,1757
728.638500,1784
728.639000,1818
728.639500,1810
728.640000,1792
728.640500,1807
728.641000,1814
728.641500,1791
728.642000,1798
728.642500,1827
728.643000,1825
728.643500,1820
728.644000,1812
728.644500,1762
728.645000,1732
728.645500,1736
728.646000,1745
728.646500,1762
728.647000,1832
728.647500,1862
728.648000,1854
728.648500,1845
728.649000,1854
728.649500,1837
728.650000,1855
728.650500,1864
728.651000,1857
728.651500,1824
728.652000,1787
728.652500,1773
728.653000,1752
728.653500,1760
728.654000,1780
728.654500,1785
728.655000,1798
728.655500,1848
728.656000,1870
728.656500,1856
728.657000,1842
728.657500,1838
728.658000,1796
728.658500,1769
728.659000,1778
728.659500,1812
728.660000,1814
728.660500,1824
728.661000,1797
728.661500,1741
728.662000,1715
728.662500,1751
728.663000,1786
728.663500,1857
728.664000,1919
728.664500,1939
728.665000,1903
728.665500,1885
728.666000,1845
728.666500,1799
728.667000,1780
728.667500,1800
728.668000,1786
728.668500,1772
728.669000,1778
728.669500,1793
728.670000,1752
728.670500,1751
728.671000,1743
728.671500,1723
728.672000,1728
728.672500,1767
728.673000,1743
728.673500,1754
728.674000,1840
728.674500,1898
728.675000,1864
728.675500,1835
728.676000,1811
728.676500,1778
728.677000,1775
728.677500,1807
728.678000,1811
728.678500,1807
728.679000,1804
728.679500,1795
728.680000,1794
728.680500,1817
728.681000,1838
728.681500,1822
728.682000,1788
728.682500,1773
728.683000,1738
728.683500,1722
728.684000,1746
728.684500,1792
728.685000,1832
728.685500,1886
728.686000,1893
728.686500,1883
728.687000,1865
728.687500,1866
728.688000,1837
728.688500,1793
728.689000,1777
728.689500,1784
728.690000,1771
728.690500,1769
728.691000,1789
728.691500,1796
728.692000,1827
728.692500,1880
728.693000,1889
728.693500,1869
728.694000,1893
728.694500,1903
728.695000,1888
728.695500,1870
728.696000,1850
728.696500,1783
728.697000,1753
728.697500,1769
728.698000,1775
728.698500,1736
728.699000,1729
728.699500,1733
728.700000,1735
728.700500,1740
728.701000,1774
728.701500,1797
728.702000,1808
728.702500,1820
728.703000,1823
728.703500,1839
728.704000,1859
728.704500,1881
728.705000,1882
728.705500,1868
728.706000,1855
728.706500,1795
728.707000,1715
728.707500,1699
728.708000,1732
728.708500,1755
728.709000,1767
728.709500,1767
728.710000,1719
728.710500,1679
728.711000,1710
728.711500,1777
728.712000,1821
728.712500,1834
728.713000,1838
728.713500,1827
728.714000,1827
728.714500,1839
728.715000,1834
728.715500,1848
728.716000,1876
728.716500,1878
728.717000,1874
728.717500,1869
728.718000,1851
728.718500,1815
728.719000,1786
728.719500,1786
728.720000,1772
728.720500,1769
728.721000,1777
728.721500,1787
728.722000,1766
728.722500,1772
728.723000,1780
728.723500,1793
728.724000,1827
728.724500,1872
728.725000,1867
728.725500,1847
728.726000,1833
728.726500,1795
728.727000,1756
728.727500,1786
728.728000,1809
728.728500,1801
728.729000,1796
728.729500,1807
728.730000,1778
728.730500,1766
728.731000,1781
728.731500,1784
728.732000,1750
728.732500,1751
728.733000,1783
728.733500,1800
728.734000,1783
728.734500,1776
728.735000,1775
728.735500,1800
728.736000,1825
728.736500,1818
728.737000,1791
728.737500,1813
728.738000,1818
728.738500,1807
728.739000,1813
728.739500,1842
728.740000,1832
728.740500,1814
728.741000,1836
728.741500,1845
728.742000,1828
728.742500,1853
728.743000,1867
728.743500,1849
728.744000,1815
728.744500,1821
728.745000,1802
728.745500,1801
728.746000,1851
728.746500,1877
728.747000,1874
728.747500,1890
728.748000,1888
728.748500,1845
728.749000,1809
728.749500,1776
728.750000,1728
728.750500,1713
728.751000,1746
728.751500,1774
728.752000,1761
728.752500,1757
728.753000,1767
728.753500,1760
728.754000,1766
728.754500,1818
728.755000,1832
728.755500,1830
728.756000,1828
728.756500,1812
728.757000,1791
728.757500,1818
728.758000,1846
728.758500,1847
728.759000,1827
728.759500,1826
728.760000,1836
728.760500,1848
728.761000,1871
728.761500,1865
728.762000,1819
728.762500,1773
728.763000,1746
728.763500,1707
728.764000,1707
728.764500,1746
728.765000,1773
728.765500,1777
728.766000,1796
728.766500,1824
728.767000,1824
728.767500,1823
728.768000,1847
728.768500,1858
728.769000,1860
728.769500,1878
728.770000,1885
728.770500,1865
728.771000,1865
728.771500,1883
728.772000,1842
728.772500,1789
728.773000,1784
728.773500,1771
728.774000,1740
728.774500,1737
728.775000,1738
728.775500,1723
728.776000,1744
728.776500,1736
728.777000,1737
728.777500,1763
728.778000,1810
728.778500,1822
728.779000,1824
728.779500,1827
728.780000,1825
728.780500,1793
728.781000,1774
728.781500,1786
728.782000,1778
728.782500,1782
728.783000,1802
728.783500,1815
728.784000,1810
728.784500,1833
728.785000,1834
728.785500,1811
728.786000,1798
728.786500,1800
728.787000,1789
728.787500,1798
728.788000,1813
728.788500,1806
728.789000,1780
728.789500,1784
728.790000,1780
728.790500,1765
728.791000,1771
728.791500,1808
728.792000,1837
728.792500,1845
728.793000,1846
728.793500,1824
728.794000,1785
728.794500,1779
728.795000,1789
728.795500,1789
728.796000,1799
728.796500,1830
728.797000,1850
728.797500,1886
728.798000,1910
728.798500,1897
728.799000,1865
728.799500,1871
728.800000,1893
728.800500,1858
728.801000,1784
728.801500,1780
728.802000,1809
728.802500,1806
728.803000,1805
728.803500,1797
728.804000,1763
728.804500,1743
728.805000,1757
728.805500,1754
728.806000,1768
728.806500,1822
728.807000,1854
728.807500,1834
728.808000,1803
728.808500,1762
728.809000,1759
728.809500,1773
728.810000,1804
728.810500,1799
728.811000,1787
728.811500,1802
728.812000,1807
728.812500,1780
728.813000,1810
728.813500,1854
728.814000,1847
728.814500,1846
728.815000,1840
728.815500,1773
728.816000,1697
728.816500,1654
728.817000,1687
728.817500,1745
728.818000,1817
728.818500,1860
728.819000,1867
728.819500,1869
728.820000,1879
728.820500,1841
728.821000,1779
728.821500,1786
728.822000,1853
728.822500,1872
728.823000,1857
728.823500,1852
728.824000,1826
728.824500,1787
728.825000,1762
728.825500,1761
728.826000,1775
728.826500,1781
728.827000,1772
728.827500,1750
728.828000,1770
728.828500,1774
728.829000,1793
728.829500,1816
728.830000,1856
728.830500,1879
728.831000,1901
728.831500,1897
728.832000,1877
728.832500,1846
728.833000,1850
728.833500,1830
728.834000,1798
728.834500,1750
728.835000,1716
728.835500,1705
728.836000,1722
728.836500,1759
728.837000,1785
728.837500,1797
728.838000,1806
728.838500,1813
728.839000,1815
728.839500,1841
728.840000,1871
728.840500,1865
728.841000,1826
728.841500,1818
728.842000,1812
728.842500,1791
728.843000,1780
728.843500,1807
728.844000,1822
728.844500,1841
728.845000,1855
728.845500,1844
728.846000,1817
728.846500,1804
728.847000,1785
728.847500,1761
728.848000,1749
728.848500,1768
728.849000,1761
728.849500,1762
728.850000,1790
728.850500,1804
728.851000,1800
728.851500,1816
728.852000,1819
728.852500,1816
728.853000,1806
728.853500,1808
728.854000,1785
728.854500,1774
728.855000,1803
728.855500,1845
728.856000,1869
728.856500,1883
728.857000,1892
728.857500,1875
728.858000,1833
728.858500,1795
728.859000,1750
728.859500,1778
728.860000,1820
728.860500,1826
728.861000,1808
728.861500,1793
728.862000,1796
728.862500,1771
728.863000,1757
728.863500,1751
728.864000,1759
728.864500,1760
728.865000,1803
728.865500,1841
728.866000,1840
728.866500,1822
728.867000,1810
728.867500,1797
728.868000,1785
728.868500,1796
728.869000,1801
728.869500,1784
728.870000,1801
728.870500,1814
728.871000,1803
728.871500,1797
728.872000,1809
728.872500,1790
728.873000,1760
728.873500,1758
728.874000,1757
728.874500,1750
728.875000,1808
728.875500,1858
728.876000,1869
728.876500,1885
728.877000,1917
728.877500,1876
728.878000,1825
728.878500,1805
728.879000,1783
728.879500,1743
728.880000,1745
728.880500,1783
728.881000,1802
728.881500,1808
728.882000,1829
728.882500,1832
728.883000,1828
728.883500,1826
728.884000,1815
728.884500,1807
728.885000,1808
728.885500,1817
728.886000,1845
728.886500,1909
728.887000,1937
728.887500,1912
728.888000,1868
728.888500,1844
728.889000,1808
728.889500,1756
728.890000,1723
728.890500,1717
728.891000,1695
728.891500,1715
728.892000,1760
728.892500,1778
728.893000,1751
728.893500,1759
728.894000,1771
728.894500,1779
728.895000,1808
728.895500,1855
728.896000,1846
728.896500,1818
728.897000,1826
728.897500,1815
728.898000,1780
728.898500,1746
728.899000,1737
728.899500,1730
728.900000,1747
728.900500,1796
728.901000,1804
728.901500,1799
728.902000,1816
728.902500,1836
728.903000,1835
728.903500,1852
728.904000,1881
728.904500,1878
728.905000,1866
728.905500,1858
728.906000,1826
728.906500,1787
728.907000,1780
728.907500,1780
728.908000,1745
728.908500,1741
728.909000,1727
728.909500,1774
728.910000,1843
728.910500,1873
728.911000,1852
728.911500,1838
728.912000,1839
728.912500,1843
728.913000,1822
728.913500,1785
728.914000,1736
728.914500,1685
728.915000,1733
728.915500,1828
728.916000,1875
728.916500,1876
728.917000,1893
728.917500,1888
728.918000,1855
728.918500,1816
728.919000,1779
728.919500,1750
728.920000,1766
728.920500,1788
728.921000,1816
728.921500,1835
728.922000,1877
728.922500,1901
728.923000,1893
728.923500,1874
