# Subject: DANNY
# Trial: contraction
# Notes: 
# Muscles: Ch1
# fs=2000 Hz, nch=1, vref=3.3 V
t_s,ch1_code
2466.000000,1793
2466.000500,1827
2466.001000,1814
2466.001500,1795
2466.002000,1821
2466.002500,1832
2466.003000,1796
2466.003500,1817
2466.004000,1819
2466.004500,1798
2466.005000,1794
2466.005500,1812
2466.006000,1805
2466.006500,1804
2466.007000,1808
2466.007500,1816
2466.008000,1802
2466.008500,1815
2466.009000,1816
2466.009500,1799
2466.010000,1802
2466.010500,1824
2466.011000,1810
2466.011500,1799
2466.012000,1815
2466.012500,1819
2466.013000,1805
2466.013500,1806
2466.014000,1816
2466.014500,1800
2466.015000,1806
2466.015500,1815
2466.016000,1812
2466.016500,1799
2466.017000,1819
2466.017500,1828
2466.018000,1804
2466.018500,1825
2466.019000,1823
2466.019500,1802
2466.020000,1804
2466.020500,1812
2466.021000,1795
2466.021500,1793
2466.022000,1817
2466.022500,1824
2466.023000,1803
2466.023500,1829
2466.024000,1816
2466.024500,1798
2466.025000,1805
2466.025500,1826
2466.026000,1795
2466.026500,1797
2466.027000,1818
2466.027500,1818
2466.028000,1806
2466.028500,1804
2466.029000,1824
2466.029500,1808
2466.030000,1793
2466.030500,1817
2466.031000,1826
2466.031500,1798
2466.032000,1814
2466.032500,1823
2466.033000,1806
2466.033500,1802
2466.034000,1816
2466.034500,1803
2466.035000,1794
2466.035500,1814
2466.036000,1822
2466.036500,1808
2466.037000,1815
2466.037500,1822
2466.038000,1811
2466.038500,1797
2466.039000,1830
2466.039500,1806
2466.040000,1804
2466.040500,1823
2466.041000,1854
2466.041500,1802
2466.042000,1816
2466.042500,1825
2466.043000,1799
2466.043500,1794
2466.044000,1812
2466.044500,1802
2466.045000,1792
2466.045500,1808
2466.046000,1825
2466.046500,1812
2466.047000,1817
2466.047500,1820
2466.048000,1800
2466.048500,1803
2466.049000,1819
2466.049500,1812
2466.050000,1798
2466.050500,1809
2466.051000,1831
2466.051500,1805
2466.052000,1806
2466.052500,1820
2466.053000,1803
2466.053500,1796
2466.054000,1820
2466.054500,1804
2466.055000,1801
2466.055500,1811
2466.056000,1827
2466.056500,1795
2466.057000,1812
2466.057500,1821
2466.058000,1805
2466.058500,1803
2466.059000,1827
2466.059500,1817
2466.060000,1810
2466.060500,1827
2466.061000,1836
2466.061500,1817
2466.062000,1833
2466.062500,1818
2466.063000,1806
2466.063500,1793
2466.064000,1820
2466.064500,1797
2466.065000,1798
2466.065500,1810
2466.066000,1819
2466.066500,1800
2466.067000,1796
2466.067500,1816
2466.068000,1804
2466.068500,1796
2466.069000,1817
2466.069500,1820
2466.070000,1796
2466.070500,1825
2466.071000,1824
2466.071500,1806
2466.072000,1797
2466.072500,1817
2466.073000,1810
2466.073500,1798
2466.074000,1817
2466.074500,1822
2466.075000,1804
2466.075500,1819
2466.076000,1819
2466.076500,1813
2466.077000,1806
2466.077500,1818
2466.078000,1814
2466.078500,1805
2466.079000,1821
2466.079500,1814
2466.080000,1807
2466.080500,1813
2466.081000,1823
2466.081500,1806
2466.082000,1798
2466.082500,1816
2466.083000,1807
2466.083500,1798
2466.084000,1815
2466.084500,1816
2466.085000,1800
2466.085500,1808
2466.086000,1814
2466.086500,1793
2466.087000,1798
2466.087500,1815
2466.088000,1810
2466.088500,1802
2466.089000,1816
2466.089500,1827
2466.090000,1815
2466.090500,1821
2466.091000,1822
2466.091500,1805
2466.092000,1796
2466.092500,1823
2466.093000,1800
2466.093500,1803
2466.094000,1814
2466.094500,1817
2466.095000,1803
2466.095500,1830
2466.096000,1816
2466.096500,1810
2466.097000,1798
2466.097500,1826
2466.098000,1812
2466.098500,1804
2466.099000,1824
2466.099500,1829
2466.100000,1812
2466.100500,1811
2466.101000,1828
2466.101500,1812
2466.102000,1800
2466.102500,1815
2466.103000,1819
2466.103500,1798
2466.104000,1806
2466.104500,1815
2466.105000,1793
2466.105500,1787
2466.106000,1806
2466.106500,1804
2466.107000,1793
2466.107500,1816
2466.108000,1815
2466.108500,1803
2466.109000,1812
2466.109500,1824
2466.110000,1812
2466.110500,1813
2466.111000,1822
2466.111500,1821
2466.112000,1804
2466.112500,1818
2466.113000,1819
2466.113500,1804
2466.114000,1812
2466.114500,1816
2466.115000,1800
2466.115500,1800
2466.116000,1817
2466.116500,1810
2466.117000,1798
2466.117500,1818
2466.118000,1817
2466.118500,1818
2466.119000,1837
2466.119500,1823
2466.120000,1814
2466.120500,1814
2466.121000,1825
2466.121500,1828
2466.122000,1802
2466.122500,1820
2466.123000,1818
2466.123500,1799
2466.124000,1786
2466.124500,1811
2466.125000,1800
2466.125500,1794
2466.126000,1815
2466.126500,1812
2466.127000,1802
2466.127500,1815
2466.128000,1816
2466.128500,1806
2466.129000,1798
2466.129500,1828
2466.130000,1813
2466.130500,1801
2466.131000,1819
2466.131500,1829
2466.132000,1801
2466.132500,1815
2466.133000,1821
2466.133500,1808
2466.134000,1795
2466.134500,1818
2466.135000,1812
2466.135500,1802
2466.136000,1819
2466.136500,1824
2466.137000,1798
2466.137500,1822
2466.138000,1818
2466.138500,1810
2466.139000,1798
2466.139500,1824
2466.140000,1815
2466.140500,1806
2466.141000,1822
2466.141500,1830
2466.142000,1806
2466.142500,1820
2466.143000,1810
2466.143500,1801
2466.144000,1790
2466.144500,1809
2466.145000,1792
2466.145500,1803
2466.146000,1814
2466.146500,1819
2466.147000,1804
2466.147500,1794
2466.148000,1826
2466.148500,1798
2466.149000,1797
2466.149500,1817
2466.150000,1819
2466.150500,1796
2466.151000,1820
2466.151500,1825
2466.152000,1809
2466.152500,1792
2466.153000,1822
2466.153500,1808
2466.154000,1797
2466.154500,1817
2466.155000,1814
2466.155500,1802
2466.156000,1819
2466.156500,1820
2466.157000,1802
2466.157500,1795
2466.158000,1819
2466.158500,1814
2466.159000,1804
2466.159500,1808
2466.160000,1835
2466.160500,1799
2466.161000,1823
2466.161500,1829
2466.162000,1812
2466.162500,1810
2466.163000,1825
2466.163500,1817
2466.164000,1803
2466.164500,1818
2466.165000,1828
2466.165500,1814
2466.166000,1808
2466.166500,1804
2466.167000,1780
2466.167500,1782
2466.168000,1802
2466.168500,1808
2466.169000,1800
2466.169500,1814
2466.170000,1819
2466.170500,1808
2466.171000,1811
2466.171500,1821
2466.172000,1810
2466.172500,1802
2466.173000,1826
2466.173500,1783
2466.174000,1797
2466.174500,1809
2466.175000,1815
2466.175500,1804
2466.176000,1815
2466.176500,1818
2466.177000,1805
2466.177500,1806
2466.178000,1819
2466.178500,1834
2466.179000,1802
2466.179500,1814
2466.180000,1825
2466.180500,1800
2466.181000,1801
2466.181500,1814
2466.182000,1794
2466.182500,1800
2466.183000,1824
2466.183500,1833
2466.184000,1801
2466.184500,1810
2466.185000,1821
2466.185500,1799
2466.186000,1807
2466.186500,1826
2466.187000,1815
2466.187500,1800
2466.188000,1812
2466.188500,1817
2466.189000,1795
2466.189500,1804
2466.190000,1814
2466.190500,1800
2466.191000,1787
2466.191500,1815
2466.192000,1808
2466.192500,1795
2466.193000,1821
2466.193500,1822
2466.194000,1804
2466.194500,1824
2466.195000,1823
2466.195500,1813
2466.196000,1799
2466.196500,1826
2466.197000,1827
2466.197500,1804
2466.198000,1818
2466.198500,1818
2466.199000,1809
2466.199500,1793
2466.200000,1823
2466.200500,1807
2466.201000,1810
2466.201500,1822
2466.202000,1822
2466.202500,1799
2466.203000,1821
2466.203500,1827
2466.204000,1800
2466.204500,1795
2466.205000,1817
2466.205500,1812
2466.206000,1807
2466.206500,1818
2466.207000,1823
2466.207500,1799
2466.208000,1804
2466.208500,1815
2466.209000,1808
2466.209500,1801
2466.210000,1822
2466.210500,1803
2466.211000,1798
2466.211500,1804
2466.212000,1824
2466.212500,1798
2466.213000,1818
2466.213500,1820
2466.214000,1806
2466.214500,1799
2466.215000,1827
2466.215500,1815
2466.216000,1806
2466.216500,1816
2466.217000,1819
2466.217500,1805
2466.218000,1817
2466.218500,1818
2466.219000,1801
2466.219500,1807
2466.220000,1826
2466.220500,1822
2466.221000,1812
2466.221500,1825
2466.222000,1828
2466.222500,1798
2466.223000,1821
2466.223500,1818
2466.224000,1798
2466.224500,1791
2466.225000,1806
2466.225500,1794
2466.226000,1799
2466.226500,1816
2466.227000,1818
2466.227500,1800
2466.228000,1794
2466.228500,1819
2466.229000,1807
2466.229500,1795
2466.230000,1821
2466.230500,1832
2466.231000,1796
2466.231500,1815
2466.232000,1821
2466.232500,1807
2466.233000,1798
2466.233500,1823
2466.234000,1804
2466.234500,1797
2466.235000,1813
2466.235500,1832
2466.236000,1808
2466.236500,1821
2466.237000,1827
2466.237500,1804
2466.238000,1800
2466.238500,1826
2466.239000,1817
2466.239500,1804
2466.240000,1814
2466.240500,1824
2466.241000,1800
2466.241500,1798
2466.242000,1818
2466.242500,1796
2466.243000,1796
2466.243500,1819
2466.244000,1803
2466.244500,1792
2466.245000,1809
2466.245500,1809
2466.246000,1804
2466.246500,1801
2466.247000,1814
2466.247500,1806
2466.248000,1799
2466.248500,1832
2466.249000,1816
2466.249500,1795
2466.250000,1814
2466.250500,1830
2466.251000,1808
2466.251500,1833
2466.252000,1822
2466.252500,1808
2466.253000,1800
2466.253500,1820
2466.254000,1798
2466.254500,1794
2466.255000,1812
2466.255500,1815
2466.256000,1800
2466.256500,1802
2466.257000,1819
2466.257500,1814
2466.258000,1813
2466.258500,1830
2466.259000,1844
2466.259500,1824
2466.260000,1824
2466.260500,1823
2466.261000,1807
2466.261500,1785
2466.262000,1814
2466.262500,1798
2466.263000,1796
2466.263500,1822
2466.264000,1823
2466.264500,1802
2466.265000,1820
2466.265500,1813
2466.266000,1798
2466.266500,1804
2466.267000,1832
2466.267500,1814
2466.268000,1810
2466.268500,1818
2466.269000,1818
2466.269500,1801
2466.270000,1821
2466.270500,1828
2466.271000,1818
2466.271500,1810
2466.272000,1826
2466.272500,1817
2466.273000,1797
2466.273500,1801
2466.274000,1814
2466.274500,1784
2466.275000,1808
2466.275500,1814
2466.276000,1799
2466.276500,1798
2466.277000,1826
2466.277500,1826
2466.278000,1803
2466.278500,1826
2466.279000,1831
2466.279500,1801
2466.280000,1818
2466.280500,1832
2466.281000,1819
2466.281500,1805
2466.282000,1820
2466.282500,1821
2466.283000,1794
2466.283500,1821
2466.284000,1823
2466.284500,1800
2466.285000,1814
2466.285500,1815
2466.286000,1806
2466.286500,1791
2466.287000,1819
2466.287500,1827
2466.288000,1805
2466.288500,1825
2466.289000,1825
2466.289500,1805
2466.290000,1792
2466.290500,1814
2466.291000,1797
2466.291500,1796
2466.292000,1813
2466.292500,1816
2466.293000,1801
2466.293500,1818
2466.294000,1820
2466.294500,1799
2466.295000,1792
2466.295500,1815
2466.296000,1803
2466.296500,1798
2466.297000,1819
2466.297500,1824
2466.298000,1804
2466.298500,1811
2466.299000,1824
2466.299500,1808
2466.300000,1812
2466.300500,1822
2466.301000,1858
2466.301500,1798
2466.302000,1818
2466.302500,1824
2466.303000,1796
2466.303500,1820
2466.304000,1822
2466.304500,1802
2466.305000,1798
2466.305500,1817
2466.306000,1805
2466.306500,1804
2466.307000,1820
2466.307500,1826
2466.308000,1798
2466.308500,1818
2466.309000,1826
2466.309500,1815
2466.310000,1805
2466.310500,1821
2466.311000,1815
2466.311500,1808
2466.312000,1820
2466.312500,1828
2466.313000,1804
2466.313500,1818
2466.314000,1828
2466.314500,1805
2466.315000,1794
2466.315500,1810
2466.316000,1810
2466.316500,1788
2466.317000,1815
2466.317500,1820
2466.318000,1796
2466.318500,1818
2466.319000,1820
2466.319500,1812
2466.320000,1796
2466.320500,1823
2466.321000,1807
2466.321500,1796
2466.322000,1824
2466.322500,1820
2466.323000,1798
2466.323500,1820
2466.324000,1821
2466.324500,1805
2466.325000,1802
2466.325500,1818
2466.326000,1802
2466.326500,1792
2466.327000,1802
2466.327500,1818
2466.328000,1800
2466.328500,1798
2466.329000,1814
2466.329500,1807
2466.330000,1787
2466.330500,1825
2466.331000,1828
2466.331500,1803
2466.332000,1822
2466.332500,1824
2466.333000,1806
2466.333500,1801
2466.334000,1823
2466.334500,1802
2466.335000,1802
2466.335500,1819
2466.336000,1827
2466.336500,1809
2466.337000,1818
2466.337500,1823
2466.338000,1811
2466.338500,1807
2466.339000,1828
2466.339500,1820
2466.340000,1812
2466.340500,1826
2466.341000,1818
2466.341500,1802
2466.342000,1814
2466.342500,1819
2466.343000,1799
2466.343500,1792
2466.344000,1808
2466.344500,1792
2466.345000,1788
2466.345500,1799
2466.346000,1801
2466.346500,1795
2466.347000,1804
2466.347500,1813
2466.348000,1806
2466.348500,1803
2466.349000,1826
2466.349500,1824
2466.350000,1810
2466.350500,1829
2466.351000,1827
2466.351500,1808
2466.352000,1828
2466.352500,1820
2466.353000,1808
2466.353500,1802
2466.354000,1828
2466.354500,1808
2466.355000,1802
2466.355500,1818
2466.356000,1822
2466.356500,1803
2466.357000,1797
2466.357500,1811
2466.358000,1798
2466.358500,1792
2466.359000,1811
2466.359500,1817
2466.360000,1806
2466.360500,1824
2466.361000,1824
2466.361500,1806
2466.362000,1798
2466.362500,1823
2466.363000,1803
2466.363500,1797
2466.364000,1826
2466.364500,1831
2466.365000,1818
2466.365500,1826
2466.366000,1828
2466.366500,1806
2466.367000,1803
2466.367500,1824
2466.368000,1818
2466.368500,1799
2466.369000,1807
2466.369500,1812
2466.370000,1806
2466.370500,1821
2466.371000,1839
2466.371500,1830
2466.372000,1828
2466.372500,1849
2466.373000,1823
2466.373500,1815
2466.374000,1816
2466.374500,1809
2466.375000,1788
2466.375500,1786
2466.376000,1797
2466.376500,1796
2466.377000,1792
2466.377500,1844
2466.378000,1841
2466.378500,1822
2466.379000,1841
2466.379500,1851
2466.380000,1825
2466.380500,1842
2466.381000,1838
2466.381500,1806
2466.382000,1785
2466.382500,1791
2466.383000,1788
2466.383500,1780
2466.384000,1793
2466.384500,1802
2466.385000,1789
2466.385500,1819
2466.386000,1813
2466.386500,1810
2466.387000,1795
2466.387500,1819
2466.388000,1812
2466.388500,1800
2466.389000,1821
2466.389500,1825
2466.390000,1794
2466.390500,1800
2466.391000,1819
2466.391500,1798
2466.392000,1796
2466.392500,1809
2466.393000,1813
2466.393500,1787
2466.394000,1809
2466.394500,1815
2466.395000,1806
2466.395500,1810
2466.396000,1823
2466.396500,1804
2466.397000,1788
2466.397500,1814
2466.398000,1818
2466.398500,1808
2466.399000,1826
2466.399500,1830
2466.400000,1825
2466.400500,1807
2466.401000,1829
2466.401500,1815
2466.402000,1799
2466.402500,1821
2466.403000,1819
2466.403500,1802
2466.404000,1809
2466.404500,1811
2466.405000,1793
2466.405500,1790
2466.406000,1813
2466.406500,1800
2466.407000,1803
2466.407500,1818
2466.408000,1825
2466.408500,1799
2466.409000,1811
2466.409500,1833
2466.410000,1830
2466.410500,1825
2466.411000,1848
2466.411500,1835
2466.412000,1821
2466.412500,1834
2466.413000,1841
2466.413500,1808
2466.414000,1808
2466.414500,1806
2466.415000,1786
2466.415500,1774
2466.416000,1809
2466.416500,1817
2466.417000,1814
2466.417500,1831
2466.418000,1836
2466.418500,1824
2466.419000,1834
2466.419500,1829
2466.420000,1808
2466.420500,1810
2466.421000,1829
2466.421500,1826
2466.422000,1822
2466.422500,1838
2466.423000,1839
2466.423500,1792
2466.424000,1787
2466.424500,1788
2466.425000,1781
2466.425500,1769
2466.426000,1796
2466.426500,1799
2466.427000,1802
2466.427500,1814
2466.428000,1816
2466.428500,1788
2466.429000,1800
2466.429500,1812
2466.430000,1806
2466.430500,1796
2466.431000,1823
2466.431500,1780
2466.432000,1792
2466.432500,1816
2466.433000,1822
2466.433500,1805
2466.434000,1790
2466.434500,1808
2466.435000,1796
2466.435500,1783
2466.436000,1805
2466.436500,1815
2466.437000,1804
2466.437500,1825
2466.438000,1823
2466.438500,1804
2466.439000,1815
2466.439500,1830
2466.440000,1816
2466.440500,1801
2466.441000,1812
2466.441500,1838
2466.442000,1822
2466.442500,1845
2466.443000,1848
2466.443500,1820
2466.444000,1801
2466.444500,1814
2466.445000,1803
2466.445500,1790
2466.446000,1790
2466.446500,1791
2466.447000,1772
2466.447500,1801
2466.448000,1813
2466.448500,1806
2466.449000,1806
2466.449500,1825
2466.450000,1817
2466.450500,1805
2466.451000,1824
2466.451500,1841
2466.452000,1814
2466.452500,1827
2466.453000,1825
2466.453500,1811
2466.454000,1796
2466.454500,1806
2466.455000,1790
2466.455500,1793
2466.456000,1828
2466.456500,1865
2466.457000,1852
2466.457500,1861
2466.458000,1864
2466.458500,1838
2466.459000,1836
2466.459500,1848
2466.460000,1845
2466.460500,1820
2466.461000,1832
2466.461500,1832
2466.462000,1816
2466.462500,1833
2466.463000,1833
2466.463500,1810
2466.464000,1782
2466.464500,1792
2466.465000,1775
2466.465500,1769
2466.466000,1794
2466.466500,1799
2466.467000,1795
2466.467500,1796
2466.468000,1802
2466.468500,1787
2466.469000,1798
2466.469500,1829
2466.470000,1821
2466.470500,1800
2466.471000,1829
2466.471500,1862
2466.472000,1858
2466.472500,1874
2466.473000,1851
2466.473500,1813
2466.474000,1786
2466.474500,1789
2466.475000,1758
2466.475500,1762
2466.476000,1783
2466.476500,1788
2466.477000,1780
2466.477500,1766
2466.478000,1792
2466.478500,1778
2466.479000,1764
2466.479500,1788
2466.480000,1801
2466.480500,1799
2466.481000,1846
2466.481500,1860
2466.482000,1837
2466.482500,1818
2466.483000,1830
2466.483500,1814
2466.484000,1802
2466.484500,1826
2466.485000,1829
2466.485500,1794
2466.486000,1811
2466.486500,1835
2466.487000,1823
2466.487500,1816
2466.488000,1853
2466.488500,1840
2466.489000,1839
2466.489500,1865
2466.490000,1865
2466.490500,1828
2466.491000,1798
2466.491500,1781
2466.492000,1760
2466.492500,1762
2466.493000,1789
2466.493500,1796
2466.494000,1789
2466.494500,1807
2466.495000,1814
2466.495500,1817
2466.496000,1820
2466.496500,1826
2466.497000,1809
2466.497500,1788
2466.498000,1780
2466.498500,1781
2466.499000,1801
2466.499500,1828
2466.500000,1844
2466.500500,1821
2466.501000,1828
2466.501500,1812
2466.502000,1802
2466.502500,1786
2466.503000,1813
2466.503500,1810
2466.504000,1816
2466.504500,1828
2466.505000,1824
2466.505500,1809
2466.506000,1823
2466.506500,1824
2466.507000,1824
2466.507500,1815
2466.508000,1852
2466.508500,1855
2466.509000,1852
2466.509500,1871
2466.510000,1859
2466.510500,1829
2466.511000,1844
2466.511500,1840
2466.512000,1810
2466.512500,1792
2466.513000,1813
2466.513500,1806
2466.514000,1814
2466.514500,1822
2466.515000,1826
2466.515500,1792
2466.516000,1791
2466.516500,1804
2466.517000,1796
2466.517500,1808
2466.518000,1856
2466.518500,1873
2466.519000,1880
2466.519500,1888
2466.520000,1870
2466.520500,1853
2466.521000,1854
2466.521500,1877
2466.522000,1884
2466.522500,1874
2466.523000,1888
2466.523500,1861
2466.524000,1790
2466.524500,1737
2466.525000,1739
2466.525500,1748
2466.526000,1767
2466.526500,1794
2466.527000,1802
2466.527500,1839
2466.528000,1882
2466.528500,1862
2466.529000,1810
2466.529500,1846
2466.530000,1900
2466.530500,1887
2466.531000,1881
2466.531500,1916
2466.532000,1887
2466.532500,1832
2466.533000,1848
2466.533500,1910
2466.534000,1921
2466.534500,1955
2466.535000,1962
2466.535500,1937
2466.536000,1912
2466.536500,1903
2466.537000,1899
2466.537500,1954
2466.538000,2030
2466.538500,2056
2466.539000,1969
2466.539500,1818
2466.540000,1710
2466.540500,1703
2466.541000,1762
2466.541500,1818
2466.542000,1789
2466.542500,1731
2466.543000,1687
2466.543500,1662
2466.544000,1649
2466.544500,1766
2466.545000,1926
2466.545500,1996
2466.546000,2022
2466.546500,2033
2466.547000,1989
2466.547500,1927
2466.548000,1878
2466.548500,1773
2466.549000,1607
2466.549500,1510
2466.550000,1524
2466.550500,1611
2466.551000,1683
2466.551500,1673
2466.552000,1654
2466.552500,1623
2466.553000,1612
2466.553500,1615
2466.554000,1603
2466.554500,1562
2466.555000,1611
2466.555500,1695
2466.556000,1739
2466.556500,1774
2466.557000,1828
2466.557500,1846
2466.558000,1868
2466.558500,1911
2466.559000,1926
2466.559500,1851
2466.560000,1828
2466.560500,1788
2466.561000,1789
2466.561500,1739
2466.562000,1684
2466.562500,1698
2466.563000,1758
2466.563500,1808
2466.564000,1813
2466.564500,1830
2466.565000,1881
2466.565500,1878
2466.566000,1843
2466.566500,1830
2466.567000,1819
2466.567500,1783
2466.568000,1798
2466.568500,1781
2466.569000,1787
2466.569500,1806
2466.570000,1846
2466.570500,1812
2466.571000,1767
2466.571500,1718
2466.572000,1688
2466.572500,1667
2466.573000,1682
2466.573500,1702
2466.574000,1626
2466.574500,1608
2466.575000,1690
2466.575500,1784
2466.576000,1829
2466.576500,1914
2466.577000,1943
2466.577500,1907
2466.578000,1898
2466.578500,1942
2466.579000,1968
2466.579500,2005
2466.580000,2058
2466.580500,2109
2466.581000,2059
2466.581500,2006
2466.582000,1898
2466.582500,1816
2466.583000,1858
2466.583500,1948
2466.584000,1901
2466.584500,1764
2466.585000,1626
2466.585500,1511
2466.586000,1432
2466.586500,1430
2466.587000,1456
2466.587500,1527
2466.588000,1631
2466.588500,1727
2466.589000,1736
2466.589500,1738
2466.590000,1788
2466.590500,1883
2466.591000,1988
2466.591500,2051
2466.592000,2086
2466.592500,2016
2466.593000,1920
2466.593500,1865
2466.594000,1812
2466.594500,1772
2466.595000,1814
2466.595500,1811
2466.596000,1745
2466.596500,1724
2466.597000,1719
2466.597500,1707
2466.598000,1749
2466.598500,1868
2466.599000,1943
2466.599500,1970
2466.600000,1986
2466.600500,1942
2466.601000,1873
2466.601500,1835
2466.602000,1822
2466.602500,1799
2466.603000,1751
2466.603500,1727
2466.604000,1743
2466.604500,1714
2466.605000,1697
2466.605500,1720
2466.606000,1739
2466.606500,1742
2466.607000,1751
2466.607500,1743
2466.608000,1710
2466.608500,1700
2466.609000,1692
2466.609500,1689
2466.610000,1769
2466.610500,1836
2466.611000,1907
2466.611500,1980
2466.612000,2047
2466.612500,2021
2466.613000,1954
2466.613500,1926
2466.614000,1865
2466.614500,1808
2466.615000,1845
2466.615500,1890
2466.616000,1846
2466.616500,1744
2466.617000,1737
2466.617500,1718
2466.618000,1778
2466.618500,1830
2466.619000,1878
2466.619500,1889
2466.620000,1889
2466.620500,1867
2466.621000,1818
2466.621500,1786
2466.622000,1775
2466.622500,1780
2466.623000,1746
2466.623500,1783
2466.624000,1790
2466.624500,1749
2466.625000,1748
2466.625500,1817
2466.626000,1842
2466.626500,1788
2466.627000,1730
2466.627500,1674
2466.628000,1685
2466.628500,1776
2466.629000,1856
2466.629500,1843
2466.630000,1816
2466.630500,1860
2466.631000,1884
2466.631500,1827
2466.632000,1785
2466.632500,1766
2466.633000,1733
2466.633500,1806
2466.634000,1892
2466.634500,1917
2466.635000,1900
2466.635500,1942
2466.636000,1958
2466.636500,1952
2466.637000,1921
2466.637500,1819
2466.638000,1700
2466.638500,1685
2466.639000,1651
2466.639500,1600
2466.640000,1587
2466.640500,1625
2466.641000,1733
2466.641500,1832
2466.642000,1911
2466.642500,1976
2466.643000,1975
2466.643500,1978
2466.644000,1970
2466.644500,1925
2466.645000,1868
2466.645500,1807
2466.646000,1693
2466.646500,1608
2466.647000,1636
2466.647500,1675
2466.648000,1674
2466.648500,1671
2466.649000,1723
2466.649500,1782
2466.650000,1856
2466.650500,1918
2466.651000,1938
2466.651500,1936
2466.652000,1964
2466.652500,1968
2466.653000,1921
2466.653500,1912
2466.654000,1862
2466.654500,1753
2466.655000,1630
2466.655500,1644
2466.656000,1712
2466.656500,1766
2466.657000,1799
2466.657500,1822
2466.658000,1801
2466.658500,1843
2466.659000,1920
2466.659500,1909
2466.660000,1852
2466.660500,1838
2466.661000,1835
2466.661500,1824
2466.662000,1884
2466.662500,1898
2466.663000,1864
2466.663500,1816
2466.664000,1843
2466.664500,1858
2466.665000,1800
2466.665500,1805
2466.666000,1866
2466.666500,1834
2466.667000,1722
2466.667500,1623
2466.668000,1572
2466.668500,1643
2466.669000,1742
2466.669500,1750
2466.670000,1749
2466.670500,1814
2466.671000,1891
2466.671500,1874
2466.672000,1837
2466.672500,1822
2466.673000,1769
2466.673500,1694
2466.674000,1657
2466.674500,1655
2466.675000,1712
2466.675500,1772
2466.676000,1811
2466.676500,1815
2466.677000,1806
2466.677500,1830
2466.678000,1820
2466.678500,1796
2466.679000,1823
2466.679500,1945
2466.680000,2053
2466.680500,2080
2466.681000,2064
2466.681500,1984
2466.682000,1872
2466.682500,1833
2466.683000,1795
2466.683500,1806
2466.684000,1826
2466.684500,1827
2466.685000,1820
2466.685500,1822
2466.686000,1812
2466.686500,1785
2466.687000,1790
2466.687500,1812
2466.688000,1798
2466.688500,1706
2466.689000,1570
2466.689500,1591
2466.690000,1673
2466.690500,1769
2466.691000,1950
2466.691500,1986
2466.692000,1981
2466.692500,1971
2466.693000,1934
2466.693500,1830
2466.694000,1746
2466.694500,1678
2466.695000,1578
2466.695500,1568
2466.696000,1664
2466.696500,1720
2466.697000,1822
2466.697500,1894
2466.698000,1889
2466.698500,1815
2466.699000,1759
2466.699500,1736
2466.700000,1745
2466.700500,1743
2466.701000,1795
2466.701500,1847
2466.702000,1934
2466.702500,2106
2466.703000,2155
2466.703500,2108
2466.704000,2112
2466.704500,2052
2466.705000,1900
2466.705500,1748
2466.706000,1586
2466.706500,1494
2466.707000,1493
2466.707500,1600
2466.708000,1675
2466.708500,1712
2466.709000,1714
2466.709500,1715
2466.710000,1790
2466.710500,1862
2466.711000,1853
2466.711500,1722
2466.712000,1713
2466.712500,1789
2466.713000,1797
2466.713500,1720
2466.714000,1712
2466.714500,1772
2466.715000,1801
2466.715500,1776
2466.716000,1772
2466.716500,1761
2466.717000,1826
2466.717500,1935
2466.718000,1961
2466.718500,1905
2466.719000,1860
2466.719500,1816
2466.720000,1825
2466.720500,1860
2466.721000,1927
2466.721500,1968
2466.722000,2046
2466.722500,2100
2466.723000,2061
2466.723500,1870
2466.724000,1654
2466.724500,1506
2466.725000,1490
2466.725500,1574
2466.726000,1725
2466.726500,1811
2466.727000,1853
2466.727500,1869
2466.728000,1904
2466.728500,1896
2466.729000,1884
2466.729500,1828
2466.730000,1749
2466.730500,1695
2466.731000,1697
2466.731500,1662
2466.732000,1680
2466.732500,1756
2466.733000,1858
2466.733500,1909
2466.734000,1934
2466.734500,2028
2466.735000,2019
2466.735500,1983
2466.736000,1954
2466.736500,1847
2466.737000,1690
2466.737500,1645
2466.738000,1701
2466.738500,1742
2466.739000,1709
2466.739500,1741
2466.740000,1748
2466.740500,1692
2466.741000,1664
2466.741500,1677
2466.742000,1674
2466.742500,1727
2466.743000,1770
2466.743500,1768
2466.744000,1792
2466.744500,1915
2466.745000,1982
2466.745500,1991
2466.746000,1980
2466.746500,1933
2466.747000,1823
2466.747500,1792
2466.748000,1850
2466.748500,1903
2466.749000,1902
2466.749500,1896
2466.750000,1871
2466.750500,1843
2466.751000,1777
2466.751500,1715
2466.752000,1744
2466.752500,1838
2466.753000,1947
2466.753500,1964
2466.754000,1943
2466.754500,1913
2466.755000,1805
2466.755500,1641
2466.756000,1551
2466.756500,1554
2466.757000,1630
2466.757500,1769
2466.758000,1858
2466.758500,1844
2466.759000,1794
2466.759500,1816
2466.760000,1756
2466.760500,1610
2466.761000,1557
2466.761500,1652
2466.762000,1725
2466.762500,1809
2466.763000,1822
2466.763500,1816
2466.764000,1799
2466.764500,1886
2466.765000,1996
2466.765500,2059
2466.766000,2110
2466.766500,2102
2466.767000,1921
2466.767500,1728
2466.768000,1634
2466.768500,1700
2466.769000,1774
2466.769500,1856
2466.770000,1901
2466.770500,1891
2466.771000,1880
2466.771500,1847
2466.772000,1762
2466.772500,1657
2466.773000,1682
2466.773500,1804
2466.774000,1934
2466.774500,1982
2466.775000,1962
2466.775500,1909
2466.776000,1878
2466.776500,1821
2466.777000,1724
2466.777500,1632
2466.778000,1564
2466.778500,1590
2466.779000,1665
2466.779500,1741
2466.780000,1769
2466.780500,1777
2466.781000,1824
2466.781500,1810
2466.782000,1754
2466.782500,1734
2466.783000,1777
2466.783500,1796
2466.784000,1832
2466.784500,1935
2466.785000,1977
2466.785500,1868
2466.786000,1829
2466.786500,1822
2466.787000,1754
2466.787500,1771
2466.788000,1989
2466.788500,2204
2466.789000,2268
2466.789500,2173
2466.790000,2005
2466.790500,1726
2466.791000,1556
2466.791500,1496
2466.792000,1500
2466.792500,1533
2466.793000,1581
2466.793500,1616
2466.794000,1640
2466.794500,1705
2466.795000,1764
2466.795500,1819
2466.796000,1927
2466.796500,1968
2466.797000,1954
2466.797500,1936
2466.798000,1916
2466.798500,1823
2466.799000,1724
2466.799500,1666
2466.800000,1616
2466.800500,1624
2466.801000,1725
2466.801500,1798
2466.802000,1804
2466.802500,1795
2466.803000,1862
2466.803500,1946
2466.804000,1984
2466.804500,1986
2466.805000,1934
2466.805500,1857
2466.806000,1774
2466.806500,1686
2466.807000,1704
2466.807500,1727
2466.808000,1747
2466.808500,1753
2466.809000,1762
2466.809500,1777
2466.810000,1778
2466.810500,1796
2466.811000,1877
2466.811500,1979
2466.812000,2030
2466.812500,2015
2466.813000,1949
2466.813500,1834
2466.814000,1752
2466.814500,1815
2466.815000,1815
2466.815500,1721
2466.816000,1710
2466.816500,1787
2466.817000,1808
2466.817500,1835
2466.818000,1886
2466.818500,1878
2466.819000,1827
2466.819500,1832
2466.820000,1835
2466.820500,1791
2466.821000,1782
2466.821500,1783
2466.822000,1774
2466.822500,1785
2466.823000,1789
2466.823500,1766
2466.824000,1716
2466.824500,1713
2466.825000,1739
2466.825500,1768
2466.826000,1771
2466.826500,1788
2466.827000,1770
2466.827500,1795
2466.828000,1851
2466.828500,1844
2466.829000,1806
2466.829500,1794
2466.830000,1804
2466.830500,1775
2466.831000,1710
2466.831500,1726
2466.832000,1788
2466.832500,1825
2466.833000,1867
2466.833500,1890
2466.834000,1820
2466.834500,1838
2466.835000,1913
2466.835500,1994
2466.836000,2086
2466.836500,2103
2466.837000,2053
2466.837500,1881
2466.838000,1598
2466.838500,1430
2466.839000,1463
2466.839500,1619
2466.840000,1789
2466.840500,1868
2466.841000,1885
2466.841500,1876
2466.842000,1831
2466.842500,1750
2466.843000,1722
2466.843500,1708
2466.844000,1694
2466.844500,1659
2466.845000,1700
2466.845500,1804
2466.846000,1844
2466.846500,1863
2466.847000,1870
2466.847500,1842
2466.848000,1840
2466.848500,1824
2466.849000,1783
2466.849500,1743
2466.850000,1779
2466.850500,1819
2466.851000,1844
2466.851500,1867
2466.852000,1848
2466.852500,1773
2466.853000,1702
2466.853500,1677
2466.854000,1742
2466.854500,1864
2466.855000,2047
2466.855500,2125
2466.856000,2134
2466.856500,2113
2466.857000,2022
2466.857500,1911
2466.858000,1918
2466.858500,1875
2466.859000,1844
2466.859500,1840
2466.860000,1801
2466.860500,1674
2466.861000,1579
2466.861500,1548
2466.862000,1513
2466.862500,1483
2466.863000,1580
2466.863500,1694
2466.864000,1727
2466.864500,1735
2466.865000,1720
2466.865500,1714
2466.866000,1772
2466.866500,1812
2466.867000,1884
2466.867500,1949
2466.868000,1904
2466.868500,1827
2466.869000,1845
2466.869500,1865
2466.870000,1838
2466.870500,1772
2466.871000,1749
2466.871500,1818
2466.872000,1893
2466.872500,1961
2466.873000,2004
2466.873500,2033
2466.874000,2022
2466.874500,1930
2466.875000,1811
2466.875500,1673
2466.876000,1596
2466.876500,1608
2466.877000,1644
2466.877500,1690
2466.878000,1750
2466.878500,1786
2466.879000,1772
2466.879500,1813
2466.880000,1878
2466.880500,1902
2466.881000,1861
2466.881500,1852
2466.882000,1851
2466.882500,1825
2466.883000,1811
2466.883500,1772
2466.884000,1686
2466.884500,1619
2466.885000,1632
2466.885500,1666
2466.886000,1698
2466.886500,1757
2466.887000,1814
2466.887500,1830
2466.888000,1842
2466.888500,1930
2466.889000,1962
2466.889500,1890
2466.890000,1814
2466.890500,1783
2466.891000,1713
2466.891500,1753
2466.892000,1811
2466.892500,1847
2466.893000,1864
2466.893500,1864
2466.894000,1787
2466.894500,1850
2466.895000,2070
2466.895500,2126
2466.896000,2054
2466.896500,2016
2466.897000,1953
2466.897500,1887
2466.898000,1822
2466.898500,1748
2466.899000,1667
2466.899500,1668
2466.900000,1740
2466.900500,1744
2466.901000,1723
2466.901500,1732
2466.902000,1726
2466.902500,1743
2466.903000,1790
2466.903500,1853
2466.904000,1920
2466.904500,1913
2466.905000,1891
2466.905500,1843
2466.906000,1754
2466.906500,1665
2466.907000,1675
2466.907500,1713
2466.908000,1715
2466.908500,1731
2466.909000,1746
2466.909500,1743
2466.910000,1770
2466.910500,1750
2466.911000,1695
2466.911500,1673
2466.912000,1722
2466.912500,1769
2466.913000,1755
2466.913500,1754
2466.914000,1758
2466.914500,1837
2466.915000,2014
2466.915500,2086
2466.916000,2052
2466.916500,1989
2466.917000,1947
2466.917500,1859
2466.918000,1760
2466.918500,1697
2466.919000,1636
2466.919500,1619
2466.920000,1701
2466.920500,1780
2466.921000,1799
2466.921500,1789
2466.922000,1804
2466.922500,1793
2466.923000,1780
2466.923500,1807
2466.924000,1810
2466.924500,1789
2466.925000,1796
2466.925500,1806
2466.926000,1803
2466.926500,1812
2466.927000,1847
2466.927500,1859
2466.928000,1854
2466.928500,1872
2466.929000,1876
2466.929500,1833
2466.930000,1820
2466.930500,1779
2466.931000,1772
2466.931500,1773
2466.932000,1804
2466.932500,1824
2466.933000,1896
2466.933500,1966
2466.934000,2015
2466.934500,2029
2466.935000,2036
2466.935500,2007
2466.936000,1946
2466.936500,1868
2466.937000,1829
2466.937500,1801
2466.938000,1726
2466.938500,1660
2466.939000,1585
2466.939500,1512
2466.940000,1512
2466.940500,1607
2466.941000,1746
2466.941500,1873
2466.942000,1927
2466.942500,1992
2466.943000,1890
2466.943500,1725
2466.944000,1720
2466.944500,1787
2466.945000,1813
2466.945500,1779
2466.946000,1723
2466.946500,1695
2466.947000,1748
2466.947500,1774
2466.948000,1737
2466.948500,1756
2466.949000,1797
2466.949500,1783
2466.950000,1791
2466.950500,1863
2466.951000,1888
2466.951500,1889
2466.952000,1908
2466.952500,1869
2466.953000,1760
2466.953500,1731
2466.954000,1741
2466.954500,1758
2466.955000,1779
2466.955500,1826
2466.956000,1829
2466.956500,1815
2466.957000,1824
2466.957500,1811
2466.958000,1809
2466.958500,1834
2466.959000,1850
2466.959500,1824
2466.960000,1840
2466.960500,1826
2466.961000,1810
2466.961500,1780
2466.962000,1805
2466.962500,1816
2466.963000,1804
2466.963500,1821
2466.964000,1822
2466.964500,1791
2466.965000,1795
2466.965500,1827
2466.966000,1806
2466.966500,1786
2466.967000,1799
2466.967500,1813
2466.968000,1798
2466.968500,1813
2466.969000,1820
2466.969500,1804
2466.970000,1798
2466.970500,1814
2466.971000,1802
2466.971500,1790
2466.972000,1806
2466.972500,1815
2466.973000,1805
2466.973500,1806
2466.974000,1819
2466.974500,1809
2466.975000,1805
2466.975500,1823
2466.976000,1818
2466.976500,1809
2466.977000,1831
2466.977500,1846
2466.978000,1842
2466.978500,1857
2466.979000,1852
2466.979500,1828
2466.980000,1807
2466.980500,1820
2466.981000,1813
2466.981500,1800
2466.982000,1820
2466.982500,1817
2466.983000,1798
2466.983500,1810
2466.984000,1814
2466.984500,1798
2466.985000,1792
2466.985500,1810
2466.986000,1800
2466.986500,1803
2466.987000,1815
2466.987500,1822
2466.988000,1808
2466.988500,1819
2466.989000,1822
2466.989500,1806
2466.990000,1818
2466.990500,1836
2466.991000,1830
2466.991500,1820
2466.992000,1818
2466.992500,1813
2466.993000,1788
2466.993500,1830
2466.994000,1862
2466.994500,1867
2466.995000,1865
2466.995500,1878
2466.996000,1860
2466.996500,1835
2466.997000,1833
2466.997500,1831
2466.998000,1779
2466.998500,1765
2466.999000,1788
2466.999500,1778
2467.000000,1769
2467.000500,1781
2467.001000,1776
2467.001500,1773
2467.002000,1783
2467.002500,1790
2467.003000,1766
2467.003500,1787
2467.004000,1805
2467.004500,1789
2467.005000,1786
2467.005500,1808
2467.006000,1820
2467.006500,1795
2467.007000,1811
2467.007500,1819
2467.008000,1803
2467.008500,1804
2467.009000,1818
2467.009500,1801
2467.010000,1801
2467.010500,1825
2467.011000,1814
2467.011500,1809
2467.012000,1819
2467.012500,1830
2467.013000,1808
2467.013500,1827
2467.014000,1831
2467.014500,1812
2467.015000,1812
2467.015500,1822
2467.016000,1816
2467.016500,1806
2467.017000,1824
2467.017500,1831
2467.018000,1814
2467.018500,1835
2467.019000,1826
2467.019500,1815
2467.020000,1814
2467.020500,1826
2467.021000,1805
2467.021500,1808
2467.022000,1818
2467.022500,1816
2467.023000,1812
2467.023500,1798
2467.024000,1818
2467.024500,1831
2467.025000,1840
2467.025500,1852
2467.026000,1861
2467.026500,1808
2467.027000,1791
2467.027500,1776
2467.028000,1755
2467.028500,1758
2467.029000,1793
2467.029500,1790
2467.030000,1797
2467.030500,1816
2467.031000,1829
2467.031500,1812
2467.032000,1818
2467.032500,1819
2467.033000,1810
2467.033500,1804
2467.034000,1826
2467.034500,1816
2467.035000,1803
2467.035500,1817
2467.036000,1815
2467.036500,1802
2467.037000,1808
2467.037500,1817
2467.038000,1797
2467.038500,1795
2467.039000,1830
2467.039500,1831
2467.040000,1814
2467.040500,1827
2467.041000,1833
2467.041500,1809
2467.042000,1826
2467.042500,1822
2467.043000,1802
2467.043500,1802
2467.044000,1815
2467.044500,1799
2467.045000,1796
2467.045500,1816
2467.046000,1818
2467.046500,1796
2467.047000,1814
2467.047500,1826
2467.048000,1811
2467.048500,1799
2467.049000,1811
2467.049500,1810
2467.050000,1811
2467.050500,1810
2467.051000,1818
2467.051500,1808
2467.052000,1810
2467.052500,1824
2467.053000,1802
2467.053500,1791
2467.054000,1817
2467.054500,1814
2467.055000,1798
2467.055500,1816
2467.056000,1821
2467.056500,1809
2467.057000,1821
2467.057500,1827
2467.058000,1813
2467.058500,1808
2467.059000,1829
2467.059500,1818
2467.060000,1810
2467.060500,1815
2467.061000,1818
2467.061500,1809
2467.062000,1829
2467.062500,1824
2467.063000,1812
2467.063500,1800
2467.064000,1819
2467.064500,1801
2467.065000,1795
2467.065500,1810
2467.066000,1818
2467.066500,1807
2467.067000,1832
2467.067500,1818
2467.068000,1809
2467.068500,1794
2467.069000,1818
2467.069500,1801
2467.070000,1798
2467.070500,1817
2467.071000,1826
2467.071500,1804
2467.072000,1817
2467.072500,1821
2467.073000,1806
2467.073500,1802
2467.074000,1818
2467.074500,1824
2467.075000,1794
2467.075500,1820
2467.076000,1824
2467.076500,1803
2467.077000,1794
2467.077500,1816
2467.078000,1814
2467.078500,1805
2467.079000,1818
2467.079500,1821
2467.080000,1805
2467.080500,1820
2467.081000,1832
2467.081500,1805
2467.082000,1806
2467.082500,1824
2467.083000,1804
2467.083500,1795
2467.084000,1817
2467.084500,1802
2467.085000,1799
2467.085500,1814
2467.086000,1818
2467.086500,1809
2467.087000,1812
2467.087500,1822
2467.088000,1807
2467.088500,1802
2467.089000,1817
2467.089500,1809
2467.090000,1808
2467.090500,1818
2467.091000,1827
2467.091500,1810
2467.092000,1827
2467.092500,1823
2467.093000,1807
2467.093500,1804
2467.094000,1822
2467.094500,1801
2467.095000,1796
2467.095500,1814
2467.096000,1820
2467.096500,1810
2467.097000,1812
2467.097500,1824
2467.098000,1813
2467.098500,1809
2467.099000,1825
2467.099500,1804
2467.100000,1808
2467.100500,1823
2467.101000,1825
2467.101500,1808
2467.102000,1787
2467.102500,1826
2467.103000,1810
2467.103500,1802
2467.104000,1818
2467.104500,1810
2467.105000,1792
2467.105500,1811
2467.106000,1814
2467.106500,1793
2467.107000,1799
2467.107500,1820
2467.108000,1804
2467.108500,1795
2467.109000,1822
2467.109500,1821
2467.110000,1803
2467.110500,1820
2467.111000,1831
2467.111500,1807
2467.112000,1794
2467.112500,1826
2467.113000,1810
2467.113500,1791
2467.114000,1822
2467.114500,1827
2467.115000,1802
2467.115500,1813
2467.116000,1820
2467.116500,1803
2467.117000,1804
2467.117500,1818
2467.118000,1812
2467.118500,1806
2467.119000,1819
2467.119500,1821
2467.120000,1806
2467.120500,1821
2467.121000,1829
2467.121500,1810
2467.122000,1804
2467.122500,1821
2467.123000,1810
2467.123500,1796
2467.124000,1813
2467.124500,1822
2467.125000,1796
2467.125500,1813
2467.126000,1822
2467.126500,1810
2467.127000,1799
2467.127500,1820
2467.128000,1809
2467.128500,1796
2467.129000,1812
2467.129500,1825
2467.130000,1802
2467.130500,1810
2467.131000,1824
2467.131500,1800
2467.132000,1797
2467.132500,1815
2467.133000,1808
2467.133500,1799
2467.134000,1813
2467.134500,1823
2467.135000,1798
2467.135500,1810
2467.136000,1819
2467.136500,1804
2467.137000,1805
2467.137500,1820
2467.138000,1817
2467.138500,1807
2467.139000,1812
2467.139500,1820
2467.140000,1815
2467.140500,1826
2467.141000,1835
2467.141500,1815
2467.142000,1809
2467.142500,1839
2467.143000,1813
2467.143500,1798
2467.144000,1815
2467.144500,1816
2467.145000,1790
2467.145500,1804
2467.146000,1798
2467.146500,1786
2467.147000,1786
2467.147500,1803
2467.148000,1799
2467.148500,1797
2467.149000,1814
2467.149500,1817
2467.150000,1799
2467.150500,1826
2467.151000,1813
2467.151500,1808
2467.152000,1799
2467.152500,1813
2467.153000,1806
2467.153500,1802
2467.154000,1826
2467.154500,1824
2467.155000,1806
2467.155500,1826
2467.156000,1821
2467.156500,1810
2467.157000,1812
2467.157500,1823
2467.158000,1809
2467.158500,1809
2467.159000,1825
2467.159500,1831
2467.160000,1814
2467.160500,1824
2467.161000,1830
2467.161500,1806
2467.162000,1790
2467.162500,1804
2467.163000,1800
2467.163500,1798
2467.164000,1813
2467.164500,1816
2467.165000,1794
2467.165500,1816
2467.166000,1815
2467.166500,1805
2467.167000,1799
2467.167500,1816
2467.168000,1808
2467.168500,1798
2467.169000,1810
2467.169500,1820
2467.170000,1816
2467.170500,1827
2467.171000,1818
2467.171500,1804
2467.172000,1800
2467.172500,1818
2467.173000,1805
2467.173500,1802
2467.174000,1814
2467.174500,1823
2467.175000,1805
2467.175500,1810
2467.176000,1819
2467.176500,1807
2467.177000,1798
2467.177500,1822
2467.178000,1795
2467.178500,1804
2467.179000,1818
2467.179500,1822
2467.180000,1810
2467.180500,1803
2467.181000,1822
2467.181500,1810
2467.182000,1807
2467.182500,1822
2467.183000,1794
2467.183500,1797
2467.184000,1810
2467.184500,1819
2467.185000,1801
2467.185500,1814
2467.186000,1808
2467.186500,1806
2467.187000,1798
2467.187500,1824
2467.188000,1831
2467.188500,1802
2467.189000,1822
2467.189500,1822
2467.190000,1805
2467.190500,1812
2467.191000,1823
2467.191500,1809
2467.192000,1804
2467.192500,1820
2467.193000,1832
2467.193500,1797
2467.194000,1816
2467.194500,1813
2467.195000,1797
2467.195500,1787
2467.196000,1811
2467.196500,1808
2467.197000,1803
2467.197500,1812
2467.198000,1802
2467.198500,1802
2467.199000,1821
2467.199500,1829
2467.200000,1815
2467.200500,1810
2467.201000,1823
2467.201500,1804
2467.202000,1804
2467.202500,1822
2467.203000,1837
2467.203500,1792
2467.204000,1814
2467.204500,1822
2467.205000,1801
2467.205500,1794
2467.206000,1810
2467.206500,1803
2467.207000,1794
2467.207500,1819
2467.208000,1798
2467.208500,1800
2467.209000,1813
2467.209500,1820
2467.210000,1804
2467.210500,1805
2467.211000,1826
2467.211500,1811
2467.212000,1804
2467.212500,1814
2467.213000,1823
2467.213500,1799
2467.214000,1817
2467.214500,1822
2467.215000,1800
2467.215500,1795
2467.216000,1814
2467.216500,1806
2467.217000,1805
2467.217500,1815
2467.218000,1828
2467.218500,1805
2467.219000,1816
2467.219500,1826
2467.220000,1810
2467.220500,1807
2467.221000,1820
2467.221500,1809
2467.222000,1802
2467.222500,1824
2467.223000,1830
2467.223500,1803
2467.224000,1817
2467.224500,1822
2467.225000,1800
2467.225500,1795
2467.226000,1814
2467.226500,1806
2467.227000,1803
2467.227500,1809
2467.228000,1818
2467.228500,1808
2467.229000,1815
2467.229500,1823
2467.230000,1810
2467.230500,1795
2467.231000,1823
2467.231500,1805
2467.232000,1797
2467.232500,1817
2467.233000,1819
2467.233500,1803
2467.234000,1814
2467.234500,1821
2467.235000,1808
2467.235500,1800
2467.236000,1815
2467.236500,1804
2467.237000,1801
2467.237500,1814
2467.238000,1818
2467.238500,1802
2467.239000,1818
2467.239500,1828
2467.240000,1810
2467.240500,1816
2467.241000,1829
2467.241500,1811
2467.242000,1801
2467.242500,1826
2467.243000,1826
2467.243500,1804
2467.244000,1817
2467.244500,1822
2467.245000,1803
2467.245500,1794
2467.246000,1814
2467.246500,1800
2467.247000,1796
2467.247500,1813
2467.248000,1823
2467.248500,1794
2467.249000,1811
2467.249500,1814
2467.250000,1798
2467.250500,1805
2467.251000,1821
2467.251500,1810
2467.252000,1800
2467.252500,1815
2467.253000,1822
2467.253500,1806
2467.254000,1822
2467.254500,1817
2467.255000,1808
2467.255500,1799
2467.256000,1815
2467.256500,1809
2467.257000,1804
2467.257500,1817
2467.258000,1832
2467.258500,1809
2467.259000,1812
2467.259500,1821
2467.260000,1812
2467.260500,1808
2467.261000,1826
2467.261500,1813
2467.262000,1815
2467.262500,1830
2467.263000,1836
2467.263500,1812
2467.264000,1819
2467.264500,1810
2467.265000,1783
2467.265500,1782
2467.266000,1792
2467.266500,1796
2467.267000,1790
2467.267500,1792
2467.268000,1806
2467.268500,1800
2467.269000,1821
2467.269500,1819
2467.270000,1806
2467.270500,1790
2467.271000,1814
2467.271500,1805
2467.272000,1799
2467.272500,1813
2467.273000,1824
2467.273500,1801
2467.274000,1797
2467.274500,1818
2467.275000,1803
2467.275500,1795
2467.276000,1814
2467.276500,1821
2467.277000,1799
2467.277500,1811
2467.278000,1824
2467.278500,1806
2467.279000,1806
2467.279500,1824
2467.280000,1820
2467.280500,1808
2467.281000,1826
2467.281500,1828
2467.282000,1802
2467.282500,1821
2467.283000,1827
2467.283500,1801
2467.284000,1796
2467.284500,1821
2467.285000,1805
2467.285500,1796
2467.286000,1819
2467.286500,1812
2467.287000,1798
2467.287500,1817
2467.288000,1817
2467.288500,1798
2467.289000,1799
2467.289500,1818
2467.290000,1807
2467.290500,1798
2467.291000,1821
2467.291500,1826
2467.292000,1799
2467.292500,1814
2467.293000,1822
2467.293500,1805
2467.294000,1800
2467.294500,1821
2467.295000,1805
2467.295500,1798
2467.296000,1811
2467.296500,1819
2467.297000,1803
2467.297500,1817
2467.298000,1822
2467.298500,1806
2467.299000,1793
2467.299500,1821
2467.300000,1810
2467.300500,1802
2467.301000,1818
2467.301500,1818
2467.302000,1803
2467.302500,1813
2467.303000,1823
2467.303500,1810
2467.304000,1801
2467.304500,1820
2467.305000,1800
2467.305500,1797
2467.306000,1804
2467.306500,1817
2467.307000,1796
2467.307500,1814
2467.308000,1817
2467.308500,1805
2467.309000,1800
2467.309500,1815
2467.310000,1813
2467.310500,1799
2467.311000,1818
2467.311500,1822
2467.312000,1800
2467.312500,1818
2467.313000,1822
2467.313500,1806
2467.314000,1803
2467.314500,1817
2467.315000,1809
2467.315500,1799
2467.316000,1818
2467.316500,1827
2467.317000,1807
2467.317500,1815
2467.318000,1822
2467.318500,1806
2467.319000,1803
2467.319500,1823
2467.320000,1815
2467.320500,1797
2467.321000,1826
2467.321500,1833
2467.322000,1796
2467.322500,1822
2467.323000,1821
2467.323500,1805
2467.324000,1795
2467.324500,1814
2467.325000,1798
2467.325500,1793
2467.326000,1810
2467.326500,1824
2467.327000,1798
2467.327500,1808
2467.328000,1821
2467.328500,1795
2467.329000,1782
2467.329500,1820
2467.330000,1806
2467.330500,1802
2467.331000,1826
2467.331500,1802
2467.332000,1796
2467.332500,1812
2467.333000,1821
2467.333500,1800
2467.334000,1804
2467.334500,1815
2467.335000,1803
2467.335500,1798
2467.336000,1812
2467.336500,1804
2467.337000,1802
2467.337500,1818
2467.338000,1824
2467.338500,1805
2467.339000,1819
2467.339500,1824
2467.340000,1818
2467.340500,1809
2467.341000,1832
2467.341500,1796
2467.342000,1796
2467.342500,1820
2467.343000,1838
2467.343500,1797
2467.344000,1826
2467.344500,1816
2467.345000,1804
2467.345500,1797
2467.346000,1813
2467.346500,1784
2467.347000,1801
2467.347500,1812
2467.348000,1822
2467.348500,1804
2467.349000,1828
2467.349500,1823
2467.350000,1806
2467.350500,1794
2467.351000,1815
2467.351500,1813
2467.352000,1802
2467.352500,1815
2467.353000,1827
2467.353500,1806
2467.354000,1830
2467.354500,1809
2467.355000,1797
2467.355500,1793
2467.356000,1814
2467.356500,1814
2467.357000,1806
2467.357500,1814
2467.358000,1826
2467.358500,1802
2467.359000,1835
2467.359500,1827
2467.360000,1803
2467.360500,1791
2467.361000,1815
2467.361500,1807
2467.362000,1801
2467.362500,1816
2467.363000,1826
2467.363500,1798
2467.364000,1825
2467.364500,1821
2467.365000,1802
2467.365500,1799
2467.366000,1824
2467.366500,1814
2467.367000,1794
2467.367500,1810
2467.368000,1811
2467.368500,1803
2467.369000,1815
2467.369500,1818
2467.370000,1813
2467.370500,1806
2467.371000,1821
2467.371500,1788
2467.372000,1800
2467.372500,1814
2467.373000,1826
2467.373500,1795
2467.374000,1818
2467.374500,1819
2467.375000,1801
2467.375500,1796
2467.376000,1820
2467.376500,1805
2467.377000,1802
2467.377500,1815
2467.378000,1818
2467.378500,1811
2467.379000,1828
2467.379500,1818
2467.380000,1818
2467.380500,1806
2467.381000,1823
2467.381500,1804
2467.382000,1797
2467.382500,1821
2467.383000,1819
2467.383500,1798
2467.384000,1821
2467.384500,1820
2467.385000,1802
2467.385500,1795
2467.386000,1811
2467.386500,1788
2467.387000,1800
2467.387500,1815
2467.388000,1822
2467.388500,1806
2467.389000,1823
2467.389500,1819
2467.390000,1812
2467.390500,1797
2467.391000,1816
2467.391500,1803
2467.392000,1798
2467.392500,1816
2467.393000,1819
2467.393500,1803
2467.394000,1825
2467.394500,1819
2467.395000,1806
2467.395500,1798
2467.396000,1814
2467.396500,1796
2467.397000,1801
2467.397500,1817
2467.398000,1827
2467.398500,1809
2467.399000,1831
2467.399500,1826
2467.400000,1810
2467.400500,1800
2467.401000,1822
2467.401500,1797
2467.402000,1803
2467.402500,1814
2467.403000,1824
2467.403500,1802
2467.404000,1831
2467.404500,1817
2467.405000,1809
2467.405500,1795
2467.406000,1814
2467.406500,1786
2467.407000,1795
2467.407500,1817
2467.408000,1819
2467.408500,1808
2467.409000,1817
2467.409500,1819
2467.410000,1800
2467.410500,1802
2467.411000,1822
2467.411500,1788
2467.412000,1800
2467.412500,1820
2467.413000,1823
2467.413500,1795
2467.414000,1804
2467.414500,1818
2467.415000,1802
2467.415500,1793
2467.416000,1814
2467.416500,1796
2467.417000,1804
2467.417500,1818
2467.418000,1824
2467.418500,1812
2467.419000,1802
2467.419500,1823
2467.420000,1814
2467.420500,1805
2467.421000,1828
2467.421500,1799
2467.422000,1802
2467.422500,1820
2467.423000,1826
2467.423500,1808
2467.424000,1807
2467.424500,1821
2467.425000,1812
2467.425500,1800
2467.426000,1822
2467.426500,1809
2467.427000,1781
2467.427500,1794
2467.428000,1803
2467.428500,1800
2467.429000,1788
2467.429500,1812
2467.430000,1801
2467.430500,1802
2467.431000,1824
2467.431500,1821
2467.432000,1795
2467.432500,1813
2467.433000,1815
2467.433500,1802
2467.434000,1793
2467.434500,1818
2467.435000,1805
2467.435500,1798
2467.436000,1820
2467.436500,1808
2467.437000,1802
2467.437500,1805
2467.438000,1830
2467.438500,1809
2467.439000,1825
2467.439500,1820
2467.440000,1816
2467.440500,1802
2467.441000,1825
2467.441500,1816
2467.442000,1804
2467.442500,1818
2467.443000,1829
2467.443500,1802
2467.444000,1809
2467.444500,1818
2467.445000,1800
2467.445500,1789
2467.446000,1815
2467.446500,1815
2467.447000,1796
2467.447500,1818
2467.448000,1819
2467.448500,1799
2467.449000,1809
2467.449500,1817
2467.450000,1804
2467.450500,1794
2467.451000,1814
2467.451500,1813
2467.452000,1800
2467.452500,1820
2467.453000,1818
2467.453500,1806
2467.454000,1816
2467.454500,1821
2467.455000,1808
2467.455500,1795
2467.456000,1818
2467.456500,1809
2467.457000,1796
2467.457500,1815
2467.458000,1827
2467.458500,1800
2467.459000,1824
2467.459500,1818
2467.460000,1805
2467.460500,1809
2467.461000,1819
2467.461500,1801
2467.462000,1802
2467.462500,1819
2467.463000,1824
2467.463500,1806
2467.464000,1798
2467.464500,1822
2467.465000,1804
2467.465500,1793
2467.466000,1816
2467.466500,1816
2467.467000,1794
2467.467500,1806
2467.468000,1822
2467.468500,1802
2467.469000,1802
2467.469500,1822
2467.470000,1817
2467.470500,1806
2467.471000,1823
2467.471500,1822
2467.472000,1810
2467.472500,1820
2467.473000,1820
2467.473500,1803
2467.474000,1798
2467.474500,1818
2467.475000,1806
2467.475500,1796
2467.476000,1815
2467.476500,1821
2467.477000,1806
2467.477500,1815
2467.478000,1823
2467.478500,1807
2467.479000,1783
2467.479500,1819
2467.480000,1814
2467.480500,1799
2467.481000,1822
2467.481500,1823
2467.482000,1811
2467.482500,1816
2467.483000,1830
2467.483500,1794
2467.484000,1797
2467.484500,1818
2467.485000,1801
2467.485500,1795
2467.486000,1804
2467.486500,1816
2467.487000,1799
2467.487500,1816
2467.488000,1817
2467.488500,1802
2467.489000,1794
2467.489500,1821
2467.490000,1806
2467.490500,1799
2467.491000,1810
2467.491500,1826
2467.492000,1805
2467.492500,1810
2467.493000,1822
2467.493500,1807
2467.494000,1799
2467.494500,1819
2467.495000,1816
2467.495500,1803
2467.496000,1817
2467.496500,1818
2467.497000,1807
2467.497500,1830
2467.498000,1824
2467.498500,1806
2467.499000,1804
2467.499500,1818
2467.500000,1824
2467.500500,1800
2467.501000,1813
2467.501500,1824
2467.502000,1805
2467.502500,1824
2467.503000,1818
2467.503500,1806
2467.504000,1795
2467.504500,1823
2467.505000,1801
2467.505500,1794
2467.506000,1812
2467.506500,1815
2467.507000,1798
2467.507500,1819
2467.508000,1823
2467.508500,1807
2467.509000,1793
2467.509500,1820
2467.510000,1826
2467.510500,1813
2467.511000,1827
2467.511500,1828
2467.512000,1810
2467.512500,1802
2467.513000,1819
2467.513500,1808
2467.514000,1796
2467.514500,1818
2467.515000,1821
2467.515500,1794
2467.516000,1812
2467.516500,1817
2467.517000,1801
2467.517500,1793
2467.518000,1822
2467.518500,1809
2467.519000,1802
2467.519500,1804
2467.520000,1819
2467.520500,1798
2467.521000,1806
2467.521500,1808
2467.522000,1804
2467.522500,1802
2467.523000,1816
2467.523500,1810
2467.524000,1801
2467.524500,1821
2467.525000,1826
2467.525500,1799
2467.526000,1810
2467.526500,1814
2467.527000,1803
2467.527500,1790
2467.528000,1815
2467.528500,1810
2467.529000,1799
2467.529500,1816
2467.530000,1818
2467.530500,1806
2467.531000,1816
2467.531500,1822
2467.532000,1803
2467.532500,1800
2467.533000,1815
2467.533500,1802
2467.534000,1802
2467.534500,1815
2467.535000,1829
2467.535500,1802
2467.536000,1809
2467.536500,1817
2467.537000,1803
2467.537500,1800
2467.538000,1823
2467.538500,1816
2467.539000,1801
2467.539500,1824
2467.540000,1829
2467.540500,1810
2467.541000,1830
2467.541500,1821
2467.542000,1806
2467.542500,1800
2467.543000,1812
2467.543500,1798
2467.544000,1802
2467.544500,1812
2467.545000,1816
2467.545500,1799
2467.546000,1794
2467.546500,1812
2467.547000,1801
2467.547500,1798
2467.548000,1813
2467.548500,1815
2467.549000,1798
2467.549500,1807
2467.550000,1821
2467.550500,1805
2467.551000,1798
2467.551500,1818
2467.552000,1808
2467.552500,1800
2467.553000,1814
2467.553500,1837
2467.554000,1799
2467.554500,1818
2467.555000,1823
2467.555500,1803
2467.556000,1799
2467.556500,1824
2467.557000,1809
2467.557500,1805
2467.558000,1814
2467.558500,1818
2467.559000,1802
2467.559500,1814
2467.560000,1823
2467.560500,1808
2467.561000,1807
2467.561500,1820
2467.562000,1810
2467.562500,1796
2467.563000,1824
2467.563500,1818
2467.564000,1791
2467.564500,1799
2467.565000,1816
2467.565500,1794
2467.566000,1795
2467.566500,1798
2467.567000,1807
2467.567500,1805
2467.568000,1821
2467.568500,1819
2467.569000,1809
2467.569500,1820
2467.570000,1819
2467.570500,1805
2467.571000,1810
2467.571500,1830
2467.572000,1829
2467.572500,1814
2467.573000,1831
2467.573500,1836
2467.574000,1807
2467.574500,1796
2467.575000,1810
2467.575500,1789
2467.576000,1788
2467.576500,1808
2467.577000,1814
2467.577500,1794
2467.578000,1814
2467.578500,1817
2467.579000,1804
2467.579500,1795
2467.580000,1823
2467.580500,1815
2467.581000,1800
2467.581500,1826
2467.582000,1832
2467.582500,1815
2467.583000,1824
2467.583500,1830
2467.584000,1808
2467.584500,1795
2467.585000,1821
2467.585500,1809
2467.586000,1799
2467.586500,1810
2467.587000,1815
2467.587500,1794
2467.588000,1804
2467.588500,1819
2467.589000,1808
2467.589500,1789
2467.590000,1812
2467.590500,1806
2467.591000,1790
2467.591500,1814
2467.592000,1830
2467.592500,1801
2467.593000,1823
2467.593500,1824
2467.594000,1805
2467.594500,1796
2467.595000,1824
2467.595500,1808
2467.596000,1804
2467.596500,1818
2467.597000,1818
2467.597500,1800
2467.598000,1804
2467.598500,1809
2467.599000,1813
2467.599500,1810
2467.600000,1834
2467.600500,1830
2467.601000,1824
2467.601500,1838
2467.602000,1837
2467.602500,1824
2467.603000,1852
2467.603500,1817
2467.604000,1786
2467.604500,1773
2467.605000,1794
2467.605500,1789
2467.606000,1785
2467.606500,1798
2467.607000,1810
2467.607500,1798
2467.608000,1801
2467.608500,1825
2467.609000,1821
2467.609500,1816
2467.610000,1832
2467.610500,1824
2467.611000,1788
2467.611500,1801
2467.612000,1816
2467.612500,1811
2467.613000,1806
2467.613500,1835
2467.614000,1824
2467.614500,1813
2467.615000,1834
2467.615500,1831
2467.616000,1808
2467.616500,1806
2467.617000,1801
2467.617500,1792
2467.618000,1788
2467.618500,1815
2467.619000,1812
2467.619500,1800
2467.620000,1820
2467.620500,1826
2467.621000,1806
2467.621500,1826
2467.622000,1841
2467.622500,1823
2467.623000,1809
2467.623500,1816
2467.624000,1813
2467.624500,1792
2467.625000,1812
2467.625500,1821
2467.626000,1804
2467.626500,1815
2467.627000,1828
2467.627500,1812
2467.628000,1805
2467.628500,1808
2467.629000,1781
2467.629500,1772
2467.630000,1803
2467.630500,1814
2467.631000,1815
2467.631500,1830
2467.632000,1850
2467.632500,1824
2467.633000,1806
2467.633500,1820
2467.634000,1805
2467.634500,1779
2467.635000,1786
2467.635500,1794
2467.636000,1787
2467.636500,1808
2467.637000,1820
2467.637500,1816
2467.638000,1807
2467.638500,1825
2467.639000,1834
2467.639500,1823
2467.640000,1852
2467.640500,1851
2467.641000,1840
2467.641500,1855
2467.642000,1848
2467.642500,1820
2467.643000,1788
2467.643500,1778
2467.644000,1753
2467.644500,1744
2467.645000,1776
2467.645500,1790
2467.646000,1783
2467.646500,1789
2467.647000,1790
2467.647500,1786
2467.648000,1778
2467.648500,1795
2467.649000,1791
2467.649500,1798
2467.650000,1828
2467.650500,1846
2467.651000,1824
2467.651500,1812
2467.652000,1824
2467.652500,1804
2467.653000,1830
2467.653500,1847
2467.654000,1849
2467.654500,1802
2467.655000,1810
2467.655500,1792
2467.656000,1767
2467.656500,1747
2467.657000,1777
2467.657500,1790
2467.658000,1801
2467.658500,1846
2467.659000,1867
2467.659500,1852
2467.660000,1874
2467.660500,1882
2467.661000,1859
2467.661500,1833
2467.662000,1827
2467.662500,1797
2467.663000,1780
2467.663500,1804
2467.664000,1825
2467.664500,1839
2467.665000,1882
2467.665500,1879
2467.666000,1860
2467.666500,1862
2467.667000,1865
2467.667500,1858
2467.668000,1862
2467.668500,1864
2467.669000,1817
2467.669500,1740
2467.670000,1740
2467.670500,1749
2467.671000,1764
2467.671500,1757
2467.672000,1776
2467.672500,1746
2467.673000,1738
2467.673500,1746
2467.674000,1730
2467.674500,1730
2467.675000,1781
2467.675500,1801
2467.676000,1796
2467.676500,1798
2467.677000,1839
2467.677500,1850
2467.678000,1851
2467.678500,1864
2467.679000,1858
2467.679500,1834
2467.680000,1856
2467.680500,1835
2467.681000,1800
2467.681500,1769
2467.682000,1794
2467.682500,1774
2467.683000,1751
2467.683500,1778
2467.684000,1803
2467.684500,1818
2467.685000,1875
2467.685500,1898
2467.686000,1915
2467.686500,1913
2467.687000,1898
2467.687500,1874
2467.688000,1845
2467.688500,1855
2467.689000,1839
2467.689500,1796
2467.690000,1779
2467.690500,1752
2467.691000,1704
2467.691500,1691
2467.692000,1713
2467.692500,1739
2467.693000,1747
2467.693500,1788
2467.694000,1810
2467.694500,1798
2467.695000,1793
2467.695500,1801
2467.696000,1822
2467.696500,1833
2467.697000,1853
2467.697500,1862
2467.698000,1851
2467.698500,1865
2467.699000,1853
2467.699500,1814
2467.700000,1825
2467.700500,1819
2467.701000,1808
2467.701500,1818
2467.702000,1892
2467.702500,1892
2467.703000,1864
2467.703500,1835
2467.704000,1794
2467.704500,1727
2467.705000,1780
2467.705500,1854
2467.706000,1886
2467.706500,1874
2467.707000,1909
2467.707500,1917
2467.708000,1934
2467.708500,1934
2467.709000,1878
2467.709500,1797
2467.710000,1804
2467.710500,1751
2467.711000,1733
2467.711500,1722
2467.712000,1774
2467.712500,1793
2467.713000,1801
2467.713500,1798
2467.714000,1771
2467.714500,1732
2467.715000,1750
2467.715500,1760
2467.716000,1750
2467.716500,1720
2467.717000,1694
2467.717500,1652
2467.718000,1671
2467.718500,1754
2467.719000,1852
2467.719500,1895
2467.720000,1935
2467.720500,1962
2467.721000,1926
2467.721500,1927
2467.722000,1920
2467.722500,1883
2467.723000,1805
2467.723500,1770
2467.724000,1759
2467.724500,1762
2467.725000,1792
2467.725500,1791
2467.726000,1703
2467.726500,1645
2467.727000,1695
2467.727500,1726
2467.728000,1726
2467.728500,1764
2467.729000,1846
2467.729500,1908
2467.730000,1965
2467.730500,1957
2467.731000,1910
2467.731500,1857
2467.732000,1824
2467.732500,1803
2467.733000,1702
2467.733500,1676
2467.734000,1688
2467.734500,1709
2467.735000,1747
2467.735500,1781
2467.736000,1790
2467.736500,1827
2467.737000,1878
2467.737500,1936
2467.738000,1980
2467.738500,2058
2467.739000,2093
2467.739500,2037
2467.740000,1969
2467.740500,1956
2467.741000,1898
2467.741500,1792
2467.742000,1724
2467.742500,1677
2467.743000,1611
2467.743500,1584
2467.744000,1593
2467.744500,1577
2467.745000,1586
2467.745500,1648
2467.746000,1683
2467.746500,1736
2467.747000,1798
2467.747500,1846
2467.748000,1925
2467.748500,2041
2467.749000,2110
2467.749500,2086
2467.750000,2052
2467.750500,2043
2467.751000,1897
2467.751500,1709
2467.752000,1569
2467.752500,1540
2467.753000,1652
2467.753500,1782
2467.754000,1838
2467.754500,1864
2467.755000,1874
2467.755500,1873
2467.756000,1779
2467.756500,1642
2467.757000,1614
2467.757500,1637
2467.758000,1674
2467.758500,1716
2467.759000,1709
2467.759500,1689
2467.760000,1701
2467.760500,1724
2467.761000,1767
2467.761500,1819
2467.762000,1883
2467.762500,1926
2467.763000,1890
2467.763500,1882
2467.764000,1847
2467.764500,1792
2467.765000,1781
2467.765500,1847
2467.766000,1883
2467.766500,1882
2467.767000,1845
2467.767500,1833
2467.768000,1809
2467.768500,1772
2467.769000,1769
2467.769500,1849
2467.770000,1903
2467.770500,1922
2467.771000,1869
2467.771500,1772
2467.772000,1739
2467.772500,1719
2467.773000,1676
2467.773500,1663
2467.774000,1752
2467.774500,1846
2467.775000,1916
2467.775500,1982
2467.776000,1970
2467.776500,1952
2467.777000,1949
2467.777500,1898
2467.778000,1812
2467.778500,1758
2467.779000,1699
2467.779500,1681
2467.780000,1745
2467.780500,1900
2467.781000,1985
2467.781500,1999
2467.782000,1998
2467.782500,1915
2467.783000,1728
2467.783500,1556
2467.784000,1519
2467.784500,1586
2467.785000,1674
2467.785500,1754
2467.786000,1776
2467.786500,1823
2467.787000,1836
2467.787500,1751
2467.788000,1661
2467.788500,1656
2467.789000,1744
2467.789500,1800
2467.790000,1852
2467.790500,1909
2467.791000,1887
2467.791500,1865
2467.792000,1874
2467.792500,1928
2467.793000,1965
2467.793500,1970
2467.794000,1928
2467.794500,1887
2467.795000,1884
2467.795500,1840
2467.796000,1720
2467.796500,1600
2467.797000,1625
2467.797500,1744
2467.798000,1800
2467.798500,1818
2467.799000,1830
2467.799500,1832
2467.800000,1864
2467.800500,1879
2467.801000,1827
2467.801500,1748
2467.802000,1761
2467.802500,1789
2467.803000,1818
2467.803500,1879
2467.804000,1906
2467.804500,1862
2467.805000,1775
2467.805500,1732
2467.806000,1673
2467.806500,1599
2467.807000,1555
2467.807500,1644
2467.808000,1782
2467.808500,1869
2467.809000,1918
2467.809500,1907
2467.810000,1876
2467.810500,1896
2467.811000,1901
2467.811500,1895
2467.812000,1918
2467.812500,1911
2467.813000,1863
2467.813500,1810
2467.814000,1808
2467.814500,1771
2467.815000,1792
2467.815500,1878
2467.816000,1932
2467.816500,1959
2467.817000,2000
2467.817500,1988
2467.818000,1930
2467.818500,1870
2467.819000,1812
2467.819500,1715
2467.820000,1649
2467.820500,1622
2467.821000,1648
2467.821500,1695
2467.822000,1767
2467.822500,1803
2467.823000,1755
2467.823500,1728
2467.824000,1768
2467.824500,1793
2467.825000,1863
2467.825500,1888
2467.826000,1829
2467.826500,1874
2467.827000,1956
2467.827500,1928
2467.828000,1840
2467.828500,1792
2467.829000,1722
2467.829500,1546
2467.830000,1483
2467.830500,1602
2467.831000,1678
2467.831500,1708
2467.832000,1779
2467.832500,1814
2467.833000,1796
2467.833500,1792
2467.834000,1851
2467.834500,1893
2467.835000,1949
2467.835500,2028
2467.836000,2057
2467.836500,1990
2467.837000,1888
2467.837500,1800
2467.838000,1761
2467.838500,1744
2467.839000,1738
2467.839500,1701
2467.840000,1727
2467.840500,1789
2467.841000,1790
2467.841500,1737
2467.842000,1702
2467.842500,1665
2467.843000,1656
2467.843500,1658
2467.844000,1758
2467.844500,1823
2467.845000,1814
2467.845500,1812
2467.846000,1840
2467.846500,1823
2467.847000,1853
2467.847500,1898
2467.848000,1924
2467.848500,1926
2467.849000,1928
2467.849500,1877
2467.850000,1840
2467.850500,1838
2467.851000,1873
2467.851500,1840
2467.852000,1810
2467.852500,1813
2467.853000,1904
2467.853500,1949
2467.854000,1920
2467.854500,1862
2467.855000,1852
2467.855500,1850
2467.856000,1782
2467.856500,1698
2467.857000,1582
2467.857500,1434
2467.858000,1504
2467.858500,1732
2467.859000,1869
2467.859500,1918
2467.860000,1923
2467.860500,1920
2467.861000,1919
2467.861500,1915
2467.862000,1890
2467.862500,1866
2467.863000,1827
2467.863500,1827
2467.864000,1849
2467.864500,1844
2467.865000,1790
2467.865500,1778
2467.866000,1764
2467.866500,1726
2467.867000,1697
2467.867500,1690
2467.868000,1655
2467.868500,1604
2467.869000,1611
2467.869500,1668
2467.870000,1731
2467.870500,1843
2467.871000,1889
2467.871500,1878
2467.872000,1851
2467.872500,1853
2467.873000,1883
2467.873500,1945
2467.874000,2018
2467.874500,2002
2467.875000,1930
2467.875500,1978
2467.876000,2005
2467.876500,1904
2467.877000,1810
2467.877500,1785
2467.878000,1747
2467.878500,1697
2467.879000,1659
2467.879500,1624
2467.880000,1627
2467.880500,1655
2467.881000,1740
2467.881500,1814
2467.882000,1865
2467.882500,1865
2467.883000,1927
2467.883500,2000
2467.884000,1989
2467.884500,1927
2467.885000,1834
2467.885500,1851
2467.886000,1938
2467.886500,1932
2467.887000,1885
2467.887500,1829
2467.888000,1772
2467.888500,1751
2467.889000,1755
2467.889500,1737
2467.890000,1682
2467.890500,1667
2467.891000,1634
2467.891500,1568
2467.892000,1558
2467.892500,1643
2467.893000,1700
2467.893500,1725
2467.894000,1784
2467.894500,1794
2467.895000,1769
2467.895500,1812
2467.896000,1896
2467.896500,1900
2467.897000,1882
2467.897500,1857
2467.898000,1799
2467.898500,1714
2467.899000,1770
2467.899500,1845
2467.900000,1804
2467.900500,1740
2467.901000,1765
2467.901500,1812
2467.902000,1804
2467.902500,1814
2467.903000,1827
2467.903500,1827
2467.904000,1918
2467.904500,2029
2467.905000,2058
2467.905500,2026
2467.906000,2049
2467.906500,2014
2467.907000,1894
2467.907500,1655
2467.908000,1463
2467.908500,1509
2467.909000,1709
2467.909500,1842
2467.910000,1872
2467.910500,1833
2467.911000,1753
2467.911500,1699
2467.912000,1734
2467.912500,1780
2467.913000,1765
2467.913500,1742
2467.914000,1753
2467.914500,1778
2467.915000,1798
2467.915500,1835
2467.916000,1927
2467.916500,2066
2467.917000,2103
2467.917500,2045
2467.918000,1968
2467.918500,1996
2467.919000,2044
2467.919500,2035
2467.920000,1878
2467.920500,1690
2467.921000,1548
2467.921500,1468
2467.922000,1475
2467.922500,1606
2467.923000,1740
2467.923500,1789
2467.924000,1801
2467.924500,1828
2467.925000,1785
2467.925500,1710
2467.926000,1673
2467.926500,1662
2467.927000,1697
2467.927500,1757
2467.928000,1758
2467.928500,1781
2467.929000,1860
2467.929500,1904
2467.930000,1893
2467.930500,1861
2467.931000,1790
2467.931500,1738
2467.932000,1865
2467.932500,2035
2467.933000,2008
2467.933500,1897
2467.934000,1788
2467.934500,1665
2467.935000,1505
2467.935500,1494
2467.936000,1690
2467.936500,1866
2467.937000,1936
2467.937500,1952
2467.938000,1896
2467.938500,1792
2467.939000,1698
2467.939500,1683
2467.940000,1736
2467.940500,1860
2467.941000,2000
2467.941500,2102
2467.942000,2117
2467.942500,2121
2467.943000,2059
2467.943500,1935
2467.944000,1799
2467.944500,1714
2467.945000,1635
2467.945500,1589
2467.946000,1599
2467.946500,1668
2467.947000,1752
2467.947500,1798
2467.948000,1870
2467.948500,1913
2467.949000,1941
2467.949500,1942
2467.950000,1927
2467.950500,1865
2467.951000,1799
2467.951500,1724
2467.952000,1689
2467.952500,1703
2467.953000,1771
2467.953500,1815
2467.954000,1713
2467.954500,1527
2467.955000,1491
2467.955500,1700
2467.956000,1921
2467.956500,1947
2467.957000,1873
2467.957500,1809
2467.958000,1799
2467.958500,1753
2467.959000,1766
2467.959500,1836
2467.960000,1881
2467.960500,1886
2467.961000,1863
2467.961500,1814
2467.962000,1736
2467.962500,1699
2467.963000,1714
2467.963500,1698
2467.964000,1704
2467.964500,1749
2467.965000,1751
2467.965500,1741
2467.966000,1780
2467.966500,1839
2467.967000,1879
2467.967500,1919
2467.968000,1983
2467.968500,2015
2467.969000,1985
2467.969500,1924
2467.970000,1810
2467.970500,1681
2467.971000,1634
2467.971500,1670
2467.972000,1704
2467.972500,1758
2467.973000,1828
2467.973500,1880
2467.974000,1896
2467.974500,1925
2467.975000,1895
2467.975500,1801
2467.976000,1796
2467.976500,1873
2467.977000,1908
2467.977500,1908
2467.978000,1877
2467.978500,1883
2467.979000,1922
2467.979500,1930
2467.980000,1758
2467.980500,1728
2467.981000,1865
2467.981500,1927
2467.982000,1840
2467.982500,1759
2467.983000,1699
2467.983500,1678
2467.984000,1720
2467.984500,1729
2467.985000,1764
2467.985500,1773
2467.986000,1830
2467.986500,1873
2467.987000,1907
2467.987500,1914
2467.988000,1918
2467.988500,1878
2467.989000,1793
2467.989500,1727
2467.990000,1700
2467.990500,1678
2467.991000,1724
2467.991500,1738
2467.992000,1705
2467.992500,1699
2467.993000,1741
2467.993500,1786
2467.994000,1783
2467.994500,1776
2467.995000,1776
2467.995500,1752
2467.996000,1727
2467.996500,1750
2467.997000,1768
2467.997500,1783
2467.998000,1818
2467.998500,1857
2467.999000,1882
2467.999500,1963
2468.000000,1979
2468.000500,1843
2468.001000,1828
2468.001500,1976
2468.002000,2050
2468.002500,2018
2468.003000,1901
2468.003500,1686
2468.004000,1650
2468.004500,1806
2468.005000,1930
2468.005500,1964
2468.006000,1941
2468.006500,1886
2468.007000,1814
2468.007500,1752
2468.008000,1736
2468.008500,1760
2468.009000,1691
2468.009500,1618
2468.010000,1556
2468.010500,1583
2468.011000,1608
2468.011500,1674
2468.012000,1750
2468.012500,1794
2468.013000,1813
2468.013500,1868
2468.014000,1886
2468.014500,1845
2468.015000,1808
2468.015500,1764
2468.016000,1738
2468.016500,1794
2468.017000,1893
2468.017500,2048
2468.018000,2154
2468.018500,2091
2468.019000,1814
2468.019500,1552
2468.020000,1617
2468.020500,1814
2468.021000,1874
2468.021500,1881
2468.022000,1902
2468.022500,1850
2468.023000,1722
2468.023500,1642
2468.024000,1666
2468.024500,1725
2468.025000,1803
2468.025500,1835
2468.026000,1787
2468.026500,1703
2468.027000,1710
2468.027500,1751
2468.028000,1743
2468.028500,1732
2468.029000,1700
2468.029500,1712
2468.030000,1825
2468.030500,1925
2468.031000,2017
2468.031500,2091
2468.032000,2025
2468.032500,1824
2468.033000,1655
2468.033500,1686
2468.034000,1753
2468.034500,1799
2468.035000,1879
2468.035500,1920
2468.036000,1932
2468.036500,1956
2468.037000,1976
2468.037500,1946
2468.038000,1955
2468.038500,1942
2468.039000,1831
2468.039500,1700
2468.040000,1731
2468.040500,1791
2468.041000,1765
2468.041500,1711
2468.042000,1683
2468.042500,1622
2468.043000,1664
2468.043500,1757
2468.044000,1744
2468.044500,1709
2468.045000,1763
2468.045500,1810
2468.046000,1802
2468.046500,1793
2468.047000,1885
2468.047500,1927
2468.048000,1926
2468.048500,1943
2468.049000,1954
2468.049500,1954
2468.050000,1972
2468.050500,1886
2468.051000,1722
2468.051500,1649
2468.052000,1610
2468.052500,1517
2468.053000,1530
2468.053500,1675
2468.054000,1770
2468.054500,1810
2468.055000,1846
2468.055500,1863
2468.056000,1885
2468.056500,1881
2468.057000,1893
2468.057500,1842
2468.058000,1762
2468.058500,1776
2468.059000,1853
2468.059500,1893
2468.060000,1906
2468.060500,1899
2468.061000,1904
2468.061500,1925
2468.062000,1961
2468.062500,1961
2468.063000,1954
2468.063500,1921
2468.064000,1866
2468.064500,1789
2468.065000,1723
2468.065500,1682
2468.066000,1665
2468.066500,1701
2468.067000,1722
2468.067500,1698
2468.068000,1725
2468.068500,1772
2468.069000,1784
2468.069500,1764
2468.070000,1791
2468.070500,1776
2468.071000,1696
2468.071500,1658
2468.072000,1709
2468.072500,1781
2468.073000,1838
2468.073500,1880
2468.074000,1927
2468.074500,1914
2468.075000,1876
2468.075500,1783
2468.076000,1794
2468.076500,1837
2468.077000,1903
2468.077500,1966
2468.078000,1940
2468.078500,1916
2468.079000,1915
2468.079500,1930
2468.080000,1928
2468.080500,1863
2468.081000,1743
2468.081500,1622
2468.082000,1622
2468.082500,1646
2468.083000,1638
2468.083500,1664
2468.084000,1719
2468.084500,1735
2468.085000,1728
2468.085500,1688
2468.086000,1687
2468.086500,1784
2468.087000,1935
2468.087500,1977
2468.088000,1970
2468.088500,1953
2468.089000,1897
2468.089500,1798
2468.090000,1761
2468.090500,1762
2468.091000,1817
2468.091500,1859
2468.092000,1888
2468.092500,1818
2468.093000,1785
2468.093500,1771
2468.094000,1766
2468.094500,1741
2468.095000,1726
2468.095500,1686
2468.096000,1656
2468.096500,1677
2468.097000,1782
2468.097500,1799
2468.098000,1795
2468.098500,1821
2468.099000,1897
2468.099500,1937
2468.100000,1965
2468.100500,2010
2468.101000,1950
2468.101500,1854
2468.102000,1812
2468.102500,1804
2468.103000,1770
2468.103500,1827
2468.104000,1851
2468.104500,1787
2468.105000,1759
2468.105500,1783
2468.106000,1704
2468.106500,1671
2468.107000,1749
2468.107500,1827
2468.108000,1850
2468.108500,1867
2468.109000,1804
2468.109500,1759
2468.110000,1807
2468.110500,1850
2468.111000,1825
2468.111500,1809
2468.112000,1777
2468.112500,1705
2468.113000,1687
2468.113500,1807
2468.114000,1888
2468.114500,1872
2468.115000,1848
2468.115500,1835
2468.116000,1783
2468.116500,1753
2468.117000,1770
2468.117500,1810
2468.118000,1830
2468.118500,1919
2468.119000,1993
2468.119500,2040
2468.120000,2022
2468.120500,2016
2468.121000,1958
2468.121500,1858
2468.122000,1771
2468.122500,1697
2468.123000,1689
2468.123500,1765
2468.124000,1801
2468.124500,1767
2468.125000,1760
2468.125500,1770
2468.126000,1696
2468.126500,1660
2468.127000,1691
2468.127500,1723
2468.128000,1723
2468.128500,1822
2468.129000,1939
2468.129500,1966
2468.130000,1918
2468.130500,1880
2468.131000,1765
2468.131500,1667
2468.132000,1642
2468.132500,1635
2468.133000,1652
2468.133500,1744
2468.134000,1845
2468.134500,1889
2468.135000,1845
2468.135500,1791
2468.136000,1746
2468.136500,1727
2468.137000,1738
2468.137500,1752
2468.138000,1762
2468.138500,1796
2468.139000,1826
2468.139500,1845
2468.140000,1879
2468.140500,1908
2468.141000,1850
2468.141500,1805
2468.142000,1820
2468.142500,1879
2468.143000,1942
2468.143500,1989
2468.144000,1968
2468.144500,1872
2468.145000,1786
2468.145500,1744
2468.146000,1731
2468.146500,1760
2468.147000,1753
2468.147500,1734
2468.148000,1728
2468.148500,1756
2468.149000,1770
2468.149500,1758
2468.150000,1760
2468.150500,1797
2468.151000,1827
2468.151500,1840
2468.152000,1858
2468.152500,1849
2468.153000,1805
2468.153500,1817
2468.154000,1838
2468.154500,1822
2468.155000,1815
2468.155500,1821
2468.156000,1801
2468.156500,1798
2468.157000,1864
2468.157500,1889
2468.158000,1882
2468.158500,1893
2468.159000,1870
2468.159500,1762
2468.160000,1691
2468.160500,1712
2468.161000,1743
2468.161500,1776
2468.162000,1830
2468.162500,1839
2468.163000,1796
2468.163500,1794
2468.164000,1810
2468.164500,1798
2468.165000,1781
2468.165500,1798
2468.166000,1796
2468.166500,1795
2468.167000,1818
2468.167500,1840
2468.168000,1826
2468.168500,1842
2468.169000,1854
2468.169500,1871
2468.170000,1898
2468.170500,1918
2468.171000,1892
2468.171500,1801
2468.172000,1720
2468.172500,1774
2468.173000,1886
2468.173500,1949
2468.174000,1968
2468.174500,1953
2468.175000,1905
2468.175500,1836
2468.176000,1685
2468.176500,1598
2468.177000,1597
2468.177500,1624
2468.178000,1657
2468.178500,1758
2468.179000,1803
2468.179500,1789
2468.180000,1775
2468.180500,1798
2468.181000,1788
2468.181500,1778
2468.182000,1801
2468.182500,1811
2468.183000,1796
2468.183500,1816
2468.184000,1826
2468.184500,1805
2468.185000,1791
2468.185500,1808
2468.186000,1799
2468.186500,1786
2468.187000,1796
2468.187500,1824
2468.188000,1816
2468.188500,1831
2468.189000,1844
2468.189500,1803
2468.190000,1790
2468.190500,1829
2468.191000,1834
2468.191500,1814
2468.192000,1826
2468.192500,1822
2468.193000,1790
2468.193500,1805
2468.194000,1820
2468.194500,1811
2468.195000,1797
2468.195500,1835
2468.196000,1836
2468.196500,1827
2468.197000,1836
2468.197500,1830
2468.198000,1799
2468.198500,1820
2468.199000,1840
2468.199500,1833
2468.200000,1827
2468.200500,1845
2468.201000,1812
2468.201500,1786
2468.202000,1800
2468.202500,1817
2468.203000,1794
2468.203500,1815
2468.204000,1826
2468.204500,1813
2468.205000,1814
2468.205500,1837
2468.206000,1823
2468.206500,1813
2468.207000,1817
2468.207500,1812
2468.208000,1796
2468.208500,1826
2468.209000,1848
2468.209500,1810
2468.210000,1792
2468.210500,1813
2468.211000,1794
2468.211500,1785
2468.212000,1802
2468.212500,1813
2468.213000,1813
2468.213500,1828
2468.214000,1826
2468.214500,1796
2468.215000,1783
2468.215500,1800
2468.216000,1805
2468.216500,1801
2468.217000,1813
2468.217500,1823
2468.218000,1800
2468.218500,1814
2468.219000,1812
2468.219500,1804
2468.220000,1808
2468.220500,1824
2468.221000,1826
2468.221500,1819
2468.222000,1838
2468.222500,1861
2468.223000,1866
2468.223500,1896
2468.224000,1899
2468.224500,1876
2468.225000,1840
2468.225500,1803
2468.226000,1742
2468.226500,1698
2468.227000,1737
2468.227500,1778
2468.228000,1790
2468.228500,1817
2468.229000,1816
2468.229500,1794
2468.230000,1791
2468.230500,1828
2468.231000,1814
2468.231500,1795
2468.232000,1814
2468.232500,1834
2468.233000,1817
2468.233500,1821
2468.234000,1812
2468.234500,1782
2468.235000,1754
2468.235500,1777
2468.236000,1792
2468.236500,1796
2468.237000,1816
2468.237500,1817
2468.238000,1790
2468.238500,1815
2468.239000,1810
2468.239500,1811
2468.240000,1807
2468.240500,1830
2468.241000,1798
2468.241500,1802
2468.242000,1819
2468.242500,1823
2468.243000,1804
2468.243500,1794
2468.244000,1821
2468.244500,1810
2468.245000,1805
2468.245500,1822
2468.246000,1826
2468.246500,1804
2468.247000,1820
2468.247500,1826
2468.248000,1802
2468.248500,1800
2468.249000,1819
2468.249500,1806
2468.250000,1806
2468.250500,1824
2468.251000,1825
2468.251500,1795
2468.252000,1809
2468.252500,1821
2468.253000,1805
2468.253500,1800
2468.254000,1822
2468.254500,1809
2468.255000,1801
2468.255500,1820
2468.256000,1823
2468.256500,1807
2468.257000,1818
2468.257500,1824
2468.258000,1810
2468.258500,1802
2468.259000,1818
2468.259500,1808
2468.260000,1804
2468.260500,1820
2468.261000,1823
2468.261500,1795
2468.262000,1813
2468.262500,1841
2468.263000,1833
2468.263500,1838
2468.264000,1853
2468.264500,1833
2468.265000,1793
2468.265500,1785
2468.266000,1779
2468.266500,1760
2468.267000,1773
2468.267500,1814
2468.268000,1829
2468.268500,1847
2468.269000,1864
2468.269500,1849
2468.270000,1810
2468.270500,1805
2468.271000,1790
2468.271500,1748
2468.272000,1779
2468.272500,1806
2468.273000,1804
2468.273500,1800
2468.274000,1817
2468.274500,1822
2468.275000,1801
2468.275500,1815
2468.276000,1824
2468.276500,1811
2468.277000,1808
2468.277500,1820
2468.278000,1804
2468.278500,1805
2468.279000,1823
2468.279500,1823
2468.280000,1806
2468.280500,1822
2468.281000,1826
2468.281500,1800
2468.282000,1832
2468.282500,1825
2468.283000,1809
2468.283500,1805
2468.284000,1819
2468.284500,1799
2468.285000,1800
2468.285500,1813
2468.286000,1822
2468.286500,1801
2468.287000,1799
2468.287500,1816
2468.288000,1802
2468.288500,1800
2468.289000,1823
2468.289500,1818
2468.290000,1798
2468.290500,1820
2468.291000,1822
2468.291500,1809
2468.292000,1808
2468.292500,1826
2468.293000,1814
2468.293500,1799
2468.294000,1820
2468.294500,1823
2468.295000,1802
2468.295500,1818
2468.296000,1821
2468.296500,1796
2468.297000,1793
2468.297500,1815
2468.298000,1806
2468.298500,1803
2468.299000,1819
2468.299500,1825
2468.300000,1800
2468.300500,1815
2468.301000,1833
2468.301500,1821
2468.302000,1817
2468.302500,1838
2468.303000,1819
2468.303500,1810
2468.304000,1820
2468.304500,1824
2468.305000,1801
2468.305500,1809
2468.306000,1814
2468.306500,1797
2468.307000,1800
2468.307500,1816
2468.308000,1810
2468.308500,1801
2468.309000,1824
2468.309500,1822
2468.310000,1808
2468.310500,1812
2468.311000,1820
2468.311500,1803
2468.312000,1795
2468.312500,1823
2468.313000,1809
2468.313500,1802
2468.314000,1822
2468.314500,1822
2468.315000,1802
2468.315500,1809
2468.316000,1823
2468.316500,1808
2468.317000,1803
2468.317500,1831
2468.318000,1811
2468.318500,1805
2468.319000,1816
2468.319500,1819
2468.320000,1811
2468.320500,1829
2468.321000,1822
2468.321500,1806
2468.322000,1804
2468.322500,1822
2468.323000,1825
2468.323500,1804
2468.324000,1818
2468.324500,1824
2468.325000,1802
2468.325500,1795
2468.326000,1817
2468.326500,1810
2468.327000,1794
2468.327500,1818
2468.328000,1829
2468.328500,1798
2468.329000,1814
2468.329500,1822
2468.330000,1808
2468.330500,1798
2468.331000,1819
2468.331500,1806
2468.332000,1805
2468.332500,1824
2468.333000,1827
2468.333500,1809
2468.334000,1816
2468.334500,1822
2468.335000,1813
2468.335500,1800
2468.336000,1819
2468.336500,1808
2468.337000,1800
2468.337500,1821
2468.338000,1822
2468.338500,1808
2468.339000,1817
2468.339500,1821
2468.340000,1808
2468.340500,1802
2468.341000,1825
2468.341500,1816
2468.342000,1800
2468.342500,1822
2468.343000,1823
2468.343500,1806
2468.344000,1827
2468.344500,1824
2468.345000,1806
2468.345500,1797
2468.346000,1815
2468.346500,1792
2468.347000,1795
2468.347500,1807
2468.348000,1815
2468.348500,1803
2468.349000,1796
2468.349500,1833
2468.350000,1812
2468.350500,1802
2468.351000,1826
2468.351500,1829
2468.352000,1804
2468.352500,1820
2468.353000,1818
2468.353500,1806
2468.354000,1797
2468.354500,1824
2468.355000,1813
2468.355500,1800
2468.356000,1813
2468.356500,1817
2468.357000,1802
2468.357500,1814
2468.358000,1820
2468.358500,1805
2468.359000,1806
2468.359500,1819
2468.360000,1811
2468.360500,1802
2468.361000,1822
2468.361500,1822
2468.362000,1803
2468.362500,1822
2468.363000,1819
2468.363500,1788
2468.364000,1782
2468.364500,1809
2468.365000,1809
2468.365500,1809
2468.366000,1824
2468.366500,1825
2468.367000,1812
2468.367500,1815
2468.368000,1824
2468.368500,1809
2468.369000,1800
2468.369500,1814
2468.370000,1787
2468.370500,1802
2468.371000,1816
2468.371500,1824
2468.372000,1798
2468.372500,1818
2468.373000,1820
2468.373500,1805
2468.374000,1806
2468.374500,1820
2468.375000,1801
2468.375500,1798
2468.376000,1817
2468.376500,1819
2468.377000,1802
2468.377500,1803
2468.378000,1819
2468.378500,1810
2468.379000,1803
2468.379500,1824
2468.380000,1840
2468.380500,1809
2468.381000,1822
2468.381500,1823
2468.382000,1805
2468.382500,1779
2468.383000,1819
2468.383500,1808
2468.384000,1800
2468.384500,1814
2468.385000,1821
2468.385500,1792
2468.386000,1812
2468.386500,1810
2468.387000,1794
2468.387500,1804
2468.388000,1818
2468.388500,1809
2468.389000,1804
2468.389500,1821
2468.390000,1818
2468.390500,1799
2468.391000,1821
2468.391500,1826
2468.392000,1815
2468.392500,1802
2468.393000,1824
2468.393500,1809
2468.394000,1796
2468.394500,1817
2468.395000,1832
2468.395500,1802
2468.396000,1811
2468.396500,1813
2468.397000,1798
2468.397500,1800
2468.398000,1814
2468.398500,1816
2468.399000,1804
2468.399500,1821
2468.400000,1820
2468.400500,1808
2468.401000,1817
2468.401500,1820
2468.402000,1811
2468.402500,1802
2468.403000,1830
2468.403500,1808
2468.404000,1802
2468.404500,1819
2468.405000,1828
2468.405500,1799
2468.406000,1812
2468.406500,1817
2468.407000,1808
2468.407500,1794
2468.408000,1819
2468.408500,1809
2468.409000,1798
2468.409500,1809
2468.410000,1830
2468.410500,1804
2468.411000,1822
2468.411500,1818
2468.412000,1806
2468.412500,1802
2468.413000,1820
2468.413500,1804
2468.414000,1798
2468.414500,1815
2468.415000,1823
2468.415500,1804
2468.416000,1813
2468.416500,1813
2468.417000,1809
2468.417500,1798
2468.418000,1818
2468.418500,1798
2468.419000,1798
2468.419500,1813
2468.420000,1823
2468.420500,1807
2468.421000,1797
2468.421500,1825
2468.422000,1814
2468.422500,1808
2468.423000,1811
2468.423500,1828
2468.424000,1800
2468.424500,1812
2468.425000,1823
2468.425500,1800
2468.426000,1796
2468.426500,1809
2468.427000,1799
2468.427500,1798
2468.428000,1808
2468.428500,1823
2468.429000,1798
2468.429500,1813
2468.430000,1825
2468.430500,1807
2468.431000,1803
2468.431500,1816
2468.432000,1808
2468.432500,1805
2468.433000,1819
2468.433500,1822
2468.434000,1782
2468.434500,1814
2468.435000,1819
2468.435500,1803
2468.436000,1800
2468.436500,1813
2468.437000,1804
2468.437500,1797
2468.438000,1813
2468.438500,1830
2468.439000,1802
2468.439500,1826
2468.440000,1829
2468.440500,1817
2468.441000,1811
2468.441500,1820
2468.442000,1809
2468.442500,1806
2468.443000,1821
2468.443500,1828
2468.444000,1799
2468.444500,1812
2468.445000,1828
2468.445500,1802
2468.446000,1794
2468.446500,1816
2468.447000,1804
2468.447500,1795
2468.448000,1809
2468.448500,1815
2468.449000,1798
2468.449500,1818
2468.450000,1825
2468.450500,1806
2468.451000,1799
2468.451500,1822
2468.452000,1804
2468.452500,1797
2468.453000,1823
2468.453500,1816
2468.454000,1805
2468.454500,1815
2468.455000,1819
2468.455500,1802
2468.456000,1794
2468.456500,1809
2468.457000,1808
2468.457500,1802
2468.458000,1821
2468.458500,1822
2468.459000,1800
2468.459500,1817
2468.460000,1826
2468.460500,1811
2468.461000,1801
2468.461500,1832
2468.462000,1783
2468.462500,1800
2468.463000,1816
2468.463500,1825
2468.464000,1793
2468.464500,1804
2468.465000,1813
2468.465500,1790
2468.466000,1792
2468.466500,1808
2468.467000,1807
2468.467500,1807
2468.468000,1822
2468.468500,1826
2468.469000,1793
2468.469500,1805
2468.470000,1814
2468.470500,1800
2468.471000,1800
2468.471500,1815
2468.472000,1804
2468.472500,1798
2468.473000,1815
2468.473500,1822
2468.474000,1799
2468.474500,1811
2468.475000,1822
2468.475500,1802
2468.476000,1800
2468.476500,1809
2468.477000,1809
2468.477500,1799
2468.478000,1817
2468.478500,1823
2468.479000,1800
2468.479500,1818
2468.480000,1828
2468.480500,1815
2468.481000,1806
2468.481500,1829
2468.482000,1818
2468.482500,1804
2468.483000,1823
2468.483500,1847
2468.484000,1805
2468.484500,1798
2468.485000,1823
2468.485500,1800
2468.486000,1791
2468.486500,1811
2468.487000,1830
2468.487500,1796
2468.488000,1809
2468.488500,1820
2468.489000,1802
2468.489500,1804
2468.490000,1820
2468.490500,1802
2468.491000,1804
2468.491500,1820
2468.492000,1814
2468.492500,1801
2468.493000,1812
2468.493500,1826
2468.494000,1804
2468.494500,1811
2468.495000,1818
2468.495500,1807
2468.496000,1797
2468.496500,1816
2468.497000,1811
2468.497500,1800
2468.498000,1814
2468.498500,1817
2468.499000,1806
2468.499500,1805
2468.500000,1820
2468.500500,1811
2468.501000,1799
2468.501500,1820
2468.502000,1820
2468.502500,1804
2468.503000,1813
2468.503500,1828
2468.504000,1804
2468.504500,1808
2468.505000,1821
2468.505500,1804
2468.506000,1797
2468.506500,1811
2468.507000,1817
2468.507500,1796
2468.508000,1814
2468.508500,1820
2468.509000,1798
2468.509500,1801
2468.510000,1822
2468.510500,1809
2468.511000,1808
2468.511500,1827
2468.512000,1819
2468.512500,1800
2468.513000,1816
2468.513500,1824
2468.514000,1805
2468.514500,1815
2468.515000,1820
2468.515500,1795
2468.516000,1786
2468.516500,1809
2468.517000,1794
2468.517500,1792
2468.518000,1812
2468.518500,1822
2468.519000,1801
2468.519500,1818
2468.520000,1829
2468.520500,1809
2468.521000,1803
2468.521500,1816
2468.522000,1806
2468.522500,1804
2468.523000,1818
2468.523500,1827
2468.524000,1806
2468.524500,1814
2468.525000,1822
2468.525500,1805
2468.526000,1792
2468.526500,1814
2468.527000,1803
2468.527500,1794
2468.528000,1809
2468.528500,1820
2468.529000,1801
2468.529500,1813
2468.530000,1820
2468.530500,1802
2468.531000,1794
2468.531500,1818
2468.532000,1806
2468.532500,1796
2468.533000,1814
2468.533500,1822
2468.534000,1802
2468.534500,1811
2468.535000,1829
2468.535500,1806
2468.536000,1802
2468.536500,1815
2468.537000,1812
2468.537500,1805
2468.538000,1822
2468.538500,1818
2468.539000,1806
2468.539500,1814
2468.540000,1818
2468.540500,1806
2468.541000,1801
2468.541500,1819
2468.542000,1813
2468.542500,1804
2468.543000,1824
2468.543500,1830
2468.544000,1801
2468.544500,1808
2468.545000,1816
2468.545500,1792
2468.546000,1785
2468.546500,1806
2468.547000,1800
2468.547500,1792
2468.548000,1806
2468.548500,1816
2468.549000,1800
2468.549500,1804
2468.550000,1827
2468.550500,1812
2468.551000,1801
2468.551500,1814
2468.552000,1802
2468.552500,1797
2468.553000,1818
2468.553500,1825
2468.554000,1809
2468.554500,1812
2468.555000,1822
2468.555500,1801
2468.556000,1798
2468.556500,1816
2468.557000,1816
2468.557500,1799
2468.558000,1815
2468.558500,1827
2468.559000,1811
2468.559500,1825
2468.560000,1824
2468.560500,1810
2468.561000,1801
2468.561500,1830
2468.562000,1821
2468.562500,1799
2468.563000,1822
2468.563500,1820
2468.564000,1799
2468.564500,1815
2468.565000,1824
2468.565500,1800
2468.566000,1792
2468.566500,1804
2468.567000,1809
2468.567500,1793
2468.568000,1805
2468.568500,1813
2468.569000,1803
2468.569500,1818
2468.570000,1822
2468.570500,1807
2468.571000,1804
2468.571500,1818
2468.572000,1808
2468.572500,1797
2468.573000,1818
2468.573500,1824
2468.574000,1801
2468.574500,1814
2468.575000,1818
2468.575500,1801
2468.576000,1793
2468.576500,1816
2468.577000,1810
2468.577500,1799
2468.578000,1814
2468.578500,1821
2468.579000,1799
2468.579500,1823
2468.580000,1828
2468.580500,1813
2468.581000,1803
2468.581500,1816
2468.582000,1829
2468.582500,1798
2468.583000,1820
2468.583500,1819
2468.584000,1800
2468.584500,1814
2468.585000,1819
2468.585500,1799
2468.586000,1799
2468.586500,1817
2468.587000,1818
2468.587500,1804
2468.588000,1811
2468.588500,1814
2468.589000,1809
2468.589500,1815
2468.590000,1821
2468.590500,1812
2468.591000,1790
2468.591500,1815
2468.592000,1802
2468.592500,1799
2468.593000,1808
2468.593500,1822
2468.594000,1792
2468.594500,1811
2468.595000,1820
2468.595500,1799
2468.596000,1799
2468.596500,1809
2468.597000,1801
2468.597500,1796
2468.598000,1817
2468.598500,1815
2468.599000,1806
2468.599500,1805
2468.600000,1824
2468.600500,1810
2468.601000,1802
2468.601500,1822
2468.602000,1809
2468.602500,1804
2468.603000,1822
2468.603500,1822
2468.604000,1802
2468.604500,1800
2468.605000,1819
2468.605500,1799
2468.606000,1796
2468.606500,1808
2468.607000,1808
2468.607500,1795
2468.608000,1812
2468.608500,1820
2468.609000,1800
2468.609500,1809
2468.610000,1826
2468.610500,1811
2468.611000,1796
2468.611500,1819
2468.612000,1816
2468.612500,1799
2468.613000,1818
2468.613500,1818
2468.614000,1802
2468.614500,1842
2468.615000,1825
2468.615500,1802
2468.616000,1798
2468.616500,1818
2468.617000,1804
2468.617500,1799
2468.618000,1810
2468.618500,1822
2468.619000,1806
2468.619500,1812
2468.620000,1823
2468.620500,1811
2468.621000,1807
2468.621500,1834
2468.622000,1826
2468.622500,1798
2468.623000,1821
2468.623500,1821
2468.624000,1799
2468.624500,1794
2468.625000,1817
2468.625500,1803
2468.626000,1793
2468.626500,1815
2468.627000,1815
2468.627500,1799
2468.628000,1813
2468.628500,1815
2468.629000,1806
2468.629500,1802
2468.630000,1808
2468.630500,1802
2468.631000,1805
2468.631500,1819
2468.632000,1825
2468.632500,1802
2468.633000,1818
2468.633500,1821
2468.634000,1808
2468.634500,1801
2468.635000,1823
2468.635500,1805
2468.636000,1798
2468.636500,1804
2468.637000,1813
2468.637500,1803
2468.638000,1818
2468.638500,1820
2468.639000,1809
2468.639500,1795
2468.640000,1821
2468.640500,1844
2468.641000,1807
2468.641500,1820
2468.642000,1829
2468.642500,1821
2468.643000,1836
2468.643500,1831
2468.644000,1810
2468.644500,1798
2468.645000,1819
2468.645500,1798
2468.646000,1791
2468.646500,1802
2468.647000,1802
2468.647500,1775
2468.648000,1810
2468.648500,1809
2468.649000,1796
2468.649500,1786
2468.650000,1814
2468.650500,1819
2468.651000,1803
2468.651500,1816
2468.652000,1820
2468.652500,1808
2468.653000,1803
2468.653500,1815
2468.654000,1808
2468.654500,1801
2468.655000,1818
2468.655500,1824
2468.656000,1796
2468.656500,1811
2468.657000,1819
2468.657500,1805
2468.658000,1799
2468.658500,1820
2468.659000,1810
2468.659500,1811
2468.660000,1831
2468.660500,1832
2468.661000,1809
2468.661500,1830
2468.662000,1828
2468.662500,1813
2468.663000,1798
2468.663500,1814
2468.664000,1803
2468.664500,1781
2468.665000,1804
2468.665500,1806
2468.666000,1788
2468.666500,1794
2468.667000,1810
2468.667500,1802
2468.668000,1797
2468.668500,1816
2468.669000,1818
2468.669500,1797
2468.670000,1818
2468.670500,1822
2468.671000,1806
2468.671500,1813
2468.672000,1822
2468.672500,1804
2468.673000,1790
2468.673500,1813
2468.674000,1798
2468.674500,1788
2468.675000,1814
2468.675500,1823
2468.676000,1803
2468.676500,1816
2468.677000,1811
2468.677500,1806
2468.678000,1802
2468.678500,1828
2468.679000,1811
2468.679500,1805
2468.680000,1824
2468.680500,1826
2468.681000,1811
2468.681500,1833
2468.682000,1821
2468.682500,1807
2468.683000,1795
2468.683500,1819
2468.684000,1805
2468.684500,1798
2468.685000,1812
2468.685500,1822
2468.686000,1799
2468.686500,1800
2468.687000,1806
2468.687500,1809
2468.688000,1791
2468.688500,1814
2468.689000,1807
2468.689500,1790
2468.690000,1824
2468.690500,1828
2468.691000,1808
2468.691500,1818
2468.692000,1820
2468.692500,1802
2468.693000,1793
2468.693500,1825
2468.694000,1804
2468.694500,1799
2468.695000,1818
2468.695500,1823
2468.696000,1799
2468.696500,1810
2468.697000,1817
2468.697500,1810
2468.698000,1801
2468.698500,1818
2468.699000,1821
2468.699500,1800
2468.700000,1823
2468.700500,1830
2468.701000,1810
2468.701500,1806
2468.702000,1822
2468.702500,1806
2468.703000,1799
2468.703500,1813
2468.704000,1819
2468.704500,1798
2468.705000,1812
2468.705500,1816
2468.706000,1798
2468.706500,1794
2468.707000,1812
2468.707500,1809
2468.708000,1796
2468.708500,1812
2468.709000,1819
2468.709500,1804
2468.710000,1819
2468.710500,1822
2468.711000,1811
2468.711500,1795
2468.712000,1814
2468.712500,1809
2468.713000,1799
2468.713500,1806
2468.714000,1816
2468.714500,1799
2468.715000,1816
2468.715500,1822
2468.716000,1806
2468.716500,1801
2468.717000,1813
2468.717500,1807
2468.718000,1802
2468.718500,1818
2468.719000,1825
2468.719500,1802
2468.720000,1833
2468.720500,1822
2468.721000,1806
2468.721500,1796
2468.722000,1816
2468.722500,1799
2468.723000,1801
2468.723500,1816
2468.724000,1819
2468.724500,1801
2468.725000,1810
2468.725500,1813
2468.726000,1801
2468.726500,1788
2468.727000,1817
2468.727500,1808
2468.728000,1798
2468.728500,1820
2468.729000,1825
2468.729500,1799
2468.730000,1794
2468.730500,1819
2468.731000,1809
2468.731500,1802
2468.732000,1820
2468.732500,1827
2468.733000,1799
2468.733500,1817
2468.734000,1820
2468.734500,1808
2468.735000,1798
2468.735500,1818
2468.736000,1807
2468.736500,1792
2468.737000,1817
2468.737500,1818
2468.738000,1805
2468.738500,1813
2468.739000,1822
2468.739500,1808
2468.740000,1805
2468.740500,1822
2468.741000,1812
2468.741500,1807
2468.742000,1815
2468.742500,1823
2468.743000,1804
2468.743500,1815
2468.744000,1822
2468.744500,1806
2468.745000,1797
2468.745500,1808
2468.746000,1797
2468.746500,1792
2468.747000,1807
2468.747500,1815
2468.748000,1802
2468.748500,1796
2468.749000,1817
2468.749500,1802
2468.750000,1794
2468.750500,1833
2468.751000,1808
2468.751500,1794
2468.752000,1808
2468.752500,1818
2468.753000,1800
2468.753500,1816
2468.754000,1819
2468.754500,1805
2468.755000,1799
2468.755500,1820
2468.756000,1807
2468.756500,1798
2468.757000,1810
2468.757500,1816
2468.758000,1805
2468.758500,1810
2468.759000,1821
2468.759500,1806
2468.760000,1807
2468.760500,1823
2468.761000,1812
2468.761500,1801
2468.762000,1816
2468.762500,1831
2468.763000,1800
2468.763500,1816
2468.764000,1814
2468.764500,1806
2468.765000,1800
2468.765500,1818
2468.766000,1805
2468.766500,1794
2468.767000,1809
2468.767500,1817
2468.768000,1809
2468.768500,1825
2468.769000,1824
2468.769500,1810
2468.770000,1798
2468.770500,1807
2468.771000,1799
2468.771500,1803
2468.772000,1812
2468.772500,1818
2468.773000,1796
2468.773500,1829
2468.774000,1815
2468.774500,1806
2468.775000,1796
2468.775500,1821
2468.776000,1805
2468.776500,1799
2468.777000,1812
2468.777500,1814
2468.778000,1804
2468.778500,1797
2468.779000,1819
2468.779500,1804
2468.780000,1804
2468.780500,1821
2468.781000,1828
2468.781500,1801
2468.782000,1815
2468.782500,1825
2468.783000,1811
2468.783500,1801
2468.784000,1822
2468.784500,1804
2468.785000,1794
2468.785500,1812
2468.786000,1815
2468.786500,1792
2468.787000,1809
2468.787500,1815
2468.788000,1798
2468.788500,1801
2468.789000,1810
2468.789500,1810
2468.790000,1799
2468.790500,1818
2468.791000,1820
2468.791500,1794
2468.792000,1812
2468.792500,1814
2468.793000,1804
2468.793500,1799
2468.794000,1806
2468.794500,1812
2468.795000,1800
2468.795500,1812
2468.796000,1813
2468.796500,1795
2468.797000,1811
2468.797500,1818
2468.798000,1806
2468.798500,1801
2468.799000,1815
2468.799500,1823
2468.800000,1805
2468.800500,1820
2468.801000,1821
2468.801500,1805
2468.802000,1818
2468.802500,1830
2468.803000,1804
2468.803500,1793
2468.804000,1805
2468.804500,1809
2468.805000,1795
2468.805500,1813
2468.806000,1814
2468.806500,1796
2468.807000,1812
2468.807500,1825
2468.808000,1799
2468.808500,1796
2468.809000,1811
2468.809500,1808
2468.810000,1801
2468.810500,1815
2468.811000,1811
2468.811500,1797
2468.812000,1825
2468.812500,1816
2468.813000,1804
2468.813500,1795
2468.814000,1817
2468.814500,1803
2468.815000,1803
2468.815500,1815
2468.816000,1822
2468.816500,1802
2468.817000,1801
2468.817500,1819
2468.818000,1805
2468.818500,1796
2468.819000,1821
2468.819500,1820
2468.820000,1798
2468.820500,1814
2468.821000,1822
2468.821500,1804
2468.822000,1798
2468.822500,1815
2468.823000,1808
2468.823500,1805
2468.824000,1816
2468.824500,1824
2468.825000,1796
2468.825500,1810
2468.826000,1812
2468.826500,1797
2468.827000,1792
2468.827500,1817
2468.828000,1808
2468.828500,1798
2468.829000,1810
2468.829500,1822
2468.830000,1798
2468.830500,1813
2468.831000,1820
2468.831500,1805
2468.832000,1797
2468.832500,1812
2468.833000,1806
2468.833500,1796
2468.834000,1815
2468.834500,1812
2468.835000,1808
2468.835500,1821
2468.836000,1821
2468.836500,1804
2468.837000,1800
2468.837500,1818
2468.838000,1813
2468.838500,1802
2468.839000,1810
2468.839500,1822
2468.840000,1811
2468.840500,1809
2468.841000,1824
2468.841500,1809
2468.842000,1792
2468.842500,1826
2468.843000,1818
2468.843500,1793
2468.844000,1816
2468.844500,1822
2468.845000,1798
2468.845500,1819
2468.846000,1816
2468.846500,1795
2468.847000,1788
2468.847500,1802
2468.848000,1804
2468.848500,1795
2468.849000,1810
2468.849500,1820
2468.850000,1814
2468.850500,1836
2468.851000,1829
2468.851500,1814
2468.852000,1799
2468.852500,1818
2468.853000,1814
2468.853500,1805
2468.854000,1817
2468.854500,1817
2468.855000,1794
2468.855500,1786
2468.856000,1812
2468.856500,1796
2468.857000,1793
2468.857500,1816
2468.858000,1818
2468.858500,1799
2468.859000,1813
2468.859500,1823
2468.860000,1806
2468.860500,1801
2468.861000,1813
2468.861500,1812
2468.862000,1801
2468.862500,1812
2468.863000,1823
2468.863500,1804
2468.864000,1807
2468.864500,1820
2468.865000,1802
2468.865500,1794
2468.866000,1814
2468.866500,1800
2468.867000,1800
2468.867500,1808
2468.868000,1820
2468.868500,1803
2468.869000,1802
2468.869500,1820
2468.870000,1811
2468.870500,1806
2468.871000,1821
2468.871500,1814
2468.872000,1801
2468.872500,1814
2468.873000,1821
2468.873500,1811
2468.874000,1819
2468.874500,1820
2468.875000,1799
2468.875500,1795
2468.876000,1817
2468.876500,1806
2468.877000,1798
2468.877500,1810
2468.878000,1815
2468.878500,1808
2468.879000,1820
2468.879500,1822
2468.880000,1813
2468.880500,1801
2468.881000,1825
2468.881500,1806
2468.882000,1804
2468.882500,1824
2468.883000,1827
2468.883500,1801
2468.884000,1810
2468.884500,1819
2468.885000,1805
2468.885500,1792
2468.886000,1808
2468.886500,1814
2468.887000,1788
2468.887500,1810
2468.888000,1812
2468.888500,1795
2468.889000,1796
2468.889500,1816
2468.890000,1809
2468.890500,1799
2468.891000,1813
2468.891500,1820
2468.892000,1804
2468.892500,1819
2468.893000,1825
2468.893500,1804
2468.894000,1792
2468.894500,1819
2468.895000,1808
2468.895500,1798
2468.896000,1814
2468.896500,1816
2468.897000,1801
2468.897500,1811
2468.898000,1823
2468.898500,1811
2468.899000,1806
2468.899500,1825
2468.900000,1814
2468.900500,1811
2468.901000,1822
2468.901500,1817
2468.902000,1800
2468.902500,1816
2468.903000,1824
2468.903500,1810
2468.904000,1784
2468.904500,1808
2468.905000,1808
2468.905500,1799
2468.906000,1817
2468.906500,1813
2468.907000,1802
2468.907500,1805
2468.908000,1821
2468.908500,1804
2468.909000,1796
2468.909500,1816
2468.910000,1810
2468.910500,1800
2468.911000,1818
2468.911500,1821
2468.912000,1801
2468.912500,1820
2468.913000,1820
2468.913500,1803
2468.914000,1806
2468.914500,1822
2468.915000,1802
2468.915500,1806
2468.916000,1818
2468.916500,1819
2468.917000,1802
2468.917500,1801
2468.918000,1811
2468.918500,1800
2468.919000,1792
2468.919500,1815
2468.920000,1822
2468.920500,1801
2468.921000,1816
2468.921500,1823
2468.922000,1794
2468.922500,1794
2468.923000,1818
2468.923500,1808
2468.924000,1802
2468.924500,1817
2468.925000,1832
2468.925500,1792
2468.926000,1810
2468.926500,1817
2468.927000,1801
2468.927500,1800
2468.928000,1817
2468.928500,1814
2468.929000,1799
2468.929500,1820
2468.930000,1823
2468.930500,1796
2468.931000,1807
2468.931500,1813
2468.932000,1794
2468.932500,1788
2468.933000,1810
2468.933500,1804
2468.934000,1795
2468.934500,1809
2468.935000,1822
2468.935500,1799
2468.936000,1825
2468.936500,1816
2468.937000,1800
2468.937500,1794
2468.938000,1812
2468.938500,1821
2468.939000,1804
2468.939500,1817
2468.940000,1822
2468.940500,1800
2468.941000,1802
2468.941500,1818
2468.942000,1808
2468.942500,1803
2468.943000,1812
2468.943500,1821
2468.944000,1798
2468.944500,1816
2468.945000,1825
2468.945500,1799
2468.946000,1794
2468.946500,1813
2468.947000,1796
2468.947500,1793
2468.948000,1808
2468.948500,1822
2468.949000,1800
2468.949500,1808
2468.950000,1813
2468.950500,1812
2468.951000,1803
2468.951500,1817
2468.952000,1809
2468.952500,1799
2468.953000,1822
2468.953500,1818
2468.954000,1806
2468.954500,1819
2468.955000,1825
2468.955500,1804
2468.956000,1799
2468.956500,1808
2468.957000,1805
2468.957500,1795
2468.958000,1816
2468.958500,1825
2468.959000,1802
2468.959500,1820
2468.960000,1828
2468.960500,1807
2468.961000,1797
2468.961500,1819
2468.962000,1798
2468.962500,1801
2468.963000,1817
2468.963500,1820
2468.964000,1798
2468.964500,1800
2468.965000,1818
2468.965500,1800
2468.966000,1792
2468.966500,1814
2468.967000,1798
2468.967500,1796
2468.968000,1810
2468.968500,1819
2468.969000,1812
2468.969500,1801
2468.970000,1824
2468.970500,1813
2468.971000,1802
2468.971500,1806
2468.972000,1827
2468.972500,1805
2468.973000,1817
2468.973500,1826
2468.974000,1808
2468.974500,1802
2468.975000,1825
2468.975500,1811
2468.976000,1806
2468.976500,1819
2468.977000,1812
2468.977500,1799
2468.978000,1812
2468.978500,1822
2468.979000,1811
2468.979500,1798
2468.980000,1818
2468.980500,1799
2468.981000,1789
2468.981500,1809
2468.982000,1802
2468.982500,1805
2468.983000,1817
2468.983500,1825
2468.984000,1809
2468.984500,1825
2468.985000,1828
2468.985500,1808
2468.986000,1794
2468.986500,1812
2468.987000,1808
2468.987500,1793
2468.988000,1818
2468.988500,1820
2468.989000,1789
2468.989500,1802
2468.990000,1817
2468.990500,1805
2468.991000,1792
2468.991500,1799
2468.992000,1805
2468.992500,1792
2468.993000,1806
2468.993500,1823
2468.994000,1798
2468.994500,1811
2468.995000,1823
2468.995500,1806
2468.996000,1800
2468.996500,1811
2468.997000,1814
2468.997500,1797
2468.998000,1815
2468.998500,1821
2468.999000,1803
2468.999500,1814
2469.000000,1822
2469.000500,1806
2469.001000,1803
2469.001500,1822
2469.002000,1820
2469.002500,1808
2469.003000,1832
2469.003500,1843
2469.004000,1811
2469.004500,1814
2469.005000,1824
2469.005500,1795
2469.006000,1787
2469.006500,1806
2469.007000,1799
2469.007500,1782
2469.008000,1816
2469.008500,1820
2469.009000,1797
2469.009500,1814
2469.010000,1826
2469.010500,1804
2469.011000,1804
2469.011500,1818
2469.012000,1797
2469.012500,1796
2469.013000,1809
2469.013500,1818
2469.014000,1797
2469.014500,1805
2469.015000,1823
2469.015500,1803
2469.016000,1796
2469.016500,1816
2469.017000,1803
2469.017500,1804
2469.018000,1820
2469.018500,1821
2469.019000,1808
2469.019500,1809
2469.020000,1821
2469.020500,1811
2469.021000,1802
2469.021500,1814
2469.022000,1806
2469.022500,1800
2469.023000,1819
2469.023500,1823
2469.024000,1802
2469.024500,1808
2469.025000,1824
2469.025500,1807
2469.026000,1795
2469.026500,1811
2469.027000,1798
2469.027500,1792
2469.028000,1804
2469.028500,1819
2469.029000,1796
2469.029500,1807
2469.030000,1814
2469.030500,1802
2469.031000,1790
2469.031500,1820
2469.032000,1806
2469.032500,1795
2469.033000,1824
2469.033500,1834
2469.034000,1811
2469.034500,1819
2469.035000,1819
2469.035500,1799
2469.036000,1786
2469.036500,1808
2469.037000,1810
2469.037500,1806
2469.038000,1824
2469.038500,1831
2469.039000,1801
2469.039500,1807
2469.040000,1829
2469.040500,1817
2469.041000,1817
2469.041500,1830
2469.042000,1821
2469.042500,1817
2469.043000,1840
2469.043500,1847
2469.044000,1820
2469.044500,1823
2469.045000,1821
2469.045500,1784
2469.046000,1776
2469.046500,1797
2469.047000,1788
2469.047500,1771
2469.048000,1794
2469.048500,1790
2469.049000,1778
2469.049500,1799
2469.050000,1813
2469.050500,1810
2469.051000,1810
2469.051500,1830
2469.052000,1826
2469.052500,1816
2469.053000,1819
2469.053500,1823
2469.054000,1802
2469.054500,1830
2469.055000,1835
2469.055500,1795
2469.056000,1774
2469.056500,1785
2469.057000,1822
2469.057500,1792
2469.058000,1818
2469.058500,1830
2469.059000,1816
2469.059500,1838
2469.060000,1852
2469.060500,1839
2469.061000,1829
2469.061500,1847
2469.062000,1819
2469.062500,1810
2469.063000,1814
2469.063500,1817
2469.064000,1802
2469.064500,1816
2469.065000,1826
2469.065500,1780
2469.066000,1756
2469.066500,1766
2469.067000,1753
2469.067500,1759
2469.068000,1778
2469.068500,1790
2469.069000,1772
2469.069500,1793
2469.070000,1811
2469.070500,1807
2469.071000,1831
2469.071500,1876
2469.072000,1857
2469.072500,1866
2469.073000,1895
2469.073500,1890
2469.074000,1870
2469.074500,1860
2469.075000,1821
2469.075500,1760
2469.076000,1708
2469.076500,1713
2469.077000,1736
2469.077500,1760
2469.078000,1799
2469.078500,1822
2469.079000,1804
2469.079500,1812
2469.080000,1804
2469.080500,1790
2469.081000,1794
2469.081500,1834
2469.082000,1823
2469.082500,1816
2469.083000,1830
2469.083500,1845
2469.084000,1826
2469.084500,1836
2469.085000,1827
2469.085500,1786
2469.086000,1782
2469.086500,1812
2469.087000,1800
2469.087500,1771
2469.088000,1777
2469.088500,1770
2469.089000,1750
2469.089500,1775
2469.090000,1797
2469.090500,1803
2469.091000,1804
2469.091500,1821
2469.092000,1812
2469.092500,1806
2469.093000,1836
2469.093500,1844
2469.094000,1806
2469.094500,1820
2469.095000,1848
2469.095500,1860
2469.096000,1894
2469.096500,1927
2469.097000,1931
2469.097500,1922
2469.098000,1906
2469.098500,1865
2469.099000,1818
2469.099500,1792
2469.100000,1762
2469.100500,1719
2469.101000,1736
2469.101500,1773
2469.102000,1763
2469.102500,1761
2469.103000,1781
2469.103500,1781
2469.104000,1742
2469.104500,1744
2469.105000,1770
2469.105500,1768
2469.106000,1765
2469.106500,1797
2469.107000,1804
2469.107500,1802
2469.108000,1844
2469.108500,1861
2469.109000,1846
2469.109500,1872
2469.110000,1877
2469.110500,1846
2469.111000,1840
2469.111500,1856
2469.112000,1864
2469.112500,1858
2469.113000,1852
2469.113500,1841
2469.114000,1814
2469.114500,1831
2469.115000,1851
2469.115500,1842
2469.116000,1833
2469.116500,1845
2469.117000,1824
2469.117500,1782
2469.118000,1779
2469.118500,1767
2469.119000,1729
2469.119500,1720
2469.120000,1705
2469.120500,1708
2469.121000,1731
2469.121500,1793
2469.122000,1843
2469.122500,1831
2469.123000,1848
2469.123500,1835
2469.124000,1786
2469.124500,1789
2469.125000,1801
2469.125500,1783
2469.126000,1784
2469.126500,1815
2469.127000,1820
2469.127500,1817
2469.128000,1834
2469.128500,1840
2469.129000,1806
2469.129500,1796
2469.130000,1789
2469.130500,1774
2469.131000,1782
2469.131500,1820
2469.132000,1812
2469.132500,1796
2469.133000,1801
2469.133500,1798
2469.134000,1772
2469.134500,1812
2469.135000,1837
2469.135500,1830
2469.136000,1836
2469.136500,1855
2469.137000,1849
2469.137500,1850
2469.138000,1847
2469.138500,1834
2469.139000,1798
2469.139500,1801
2469.140000,1790
2469.140500,1770
2469.141000,1764
2469.141500,1799
2469.142000,1802
2469.142500,1811
2469.143000,1830
2469.143500,1819
2469.144000,1800
2469.144500,1854
2469.145000,1882
2469.145500,1862
2469.146000,1867
2469.146500,1912
2469.147000,1936
2469.147500,1953
2469.148000,1969
2469.148500,1935
2469.149000,1872
2469.149500,1815
2469.150000,1723
2469.150500,1607
2469.151000,1543
2469.151500,1574
2469.152000,1664
2469.152500,1734
2469.153000,1822
2469.153500,1879
2469.154000,1891
2469.154500,1966
2469.155000,2020
2469.155500,1992
2469.156000,1907
2469.156500,1827
2469.157000,1785
2469.157500,1773
2469.158000,1782
2469.158500,1747
2469.159000,1688
2469.159500,1682
2469.160000,1692
2469.160500,1705
2469.161000,1734
2469.161500,1787
2469.162000,1789
2469.162500,1823
2469.163000,1886
2469.163500,1903
2469.164000,1863
2469.164500,1837
2469.165000,1852
2469.165500,1828
2469.166000,1836
2469.166500,1911
2469.167000,1934
2469.167500,1926
2469.168000,1938
2469.168500,1930
2469.169000,1916
2469.169500,1898
2469.170000,1829
2469.170500,1717
2469.171000,1676
2469.171500,1746
2469.172000,1823
2469.172500,1796
2469.173000,1742
2469.173500,1644
2469.174000,1586
2469.174500,1610
2469.175000,1638
2469.175500,1672
2469.176000,1733
2469.176500,1772
2469.177000,1738
2469.177500,1748
2469.178000,1744
2469.178500,1751
2469.179000,1718
2469.179500,1720
2469.180000,1733
2469.180500,1778
2469.181000,1832
2469.181500,1906
2469.182000,1936
2469.182500,1994
2469.183000,2034
2469.183500,2020
2469.184000,1960
2469.184500,1924
2469.185000,1849
2469.185500,1789
2469.186000,1758
2469.186500,1728
2469.187000,1728
2469.187500,1833
2469.188000,1912
2469.188500,1894
2469.189000,1830
2469.189500,1793
2469.190000,1797
2469.190500,1809
2469.191000,1826
2469.191500,1835
2469.192000,1801
2469.192500,1768
2469.193000,1770
2469.193500,1815
2469.194000,1858
2469.194500,1920
2469.195000,1999
2469.195500,1975
2469.196000,1944
2469.196500,1925
2469.197000,1897
2469.197500,1869
2469.198000,1822
2469.198500,1702
2469.199000,1604
2469.199500,1572
2469.200000,1564
2469.200500,1593
2469.201000,1690
2469.201500,1843
2469.202000,1892
2469.202500,1899
2469.203000,1885
2469.203500,1848
2469.204000,1724
2469.204500,1574
2469.205000,1468
2469.205500,1537
2469.206000,1679
2469.206500,1830
2469.207000,1909
2469.207500,1924
2469.208000,1933
2469.208500,1895
2469.209000,1827
2469.209500,1845
2469.210000,1840
2469.210500,1842
2469.211000,1850
2469.211500,1874
2469.212000,1837
2469.212500,1792
2469.213000,1767
2469.213500,1758
2469.214000,1718
2469.214500,1738
2469.215000,1768
2469.215500,1788
2469.216000,1801
2469.216500,1812
2469.217000,1856
2469.217500,1856
2469.218000,1853
2469.218500,1874
2469.219000,1870
2469.219500,1862
2469.220000,1821
2469.220500,1710
2469.221000,1668
2469.221500,1729
2469.222000,1806
2469.222500,1869
2469.223000,1918
2469.223500,1894
2469.224000,1811
2469.224500,1769
2469.225000,1746
2469.225500,1738
2469.226000,1758
2469.226500,1828
2469.227000,1931
2469.227500,1960
2469.228000,1914
2469.228500,1871
2469.229000,1882
2469.229500,1902
2469.230000,1839
2469.230500,1808
2469.231000,1791
2469.231500,1800
2469.232000,1740
2469.232500,1644
2469.233000,1602
2469.233500,1645
2469.234000,1688
2469.234500,1776
2469.235000,1823
2469.235500,1834
2469.236000,1871
2469.236500,1925
2469.237000,1910
2469.237500,1885
2469.238000,1877
2469.238500,1868
2469.239000,1866
2469.239500,1854
2469.240000,1814
2469.240500,1759
2469.241000,1699
2469.241500,1686
2469.242000,1681
2469.242500,1731
2469.243000,1797
2469.243500,1812
2469.244000,1819
2469.244500,1880
2469.245000,1897
2469.245500,1825
2469.246000,1746
2469.246500,1762
2469.247000,1806
2469.247500,1823
2469.248000,1892
2469.248500,2008
2469.249000,2073
2469.249500,2100
2469.250000,2071
2469.250500,2020
2469.251000,2024
2469.251500,2047
2469.252000,1941
2469.252500,1779
2469.253000,1595
2469.253500,1428
2469.254000,1358
2469.254500,1459
2469.255000,1600
2469.255500,1670
2469.256000,1690
2469.256500,1722
2469.257000,1796
2469.257500,1902
2469.258000,1957
2469.258500,1936
2469.259000,1948
2469.259500,1913
2469.260000,1778
2469.260500,1601
2469.261000,1582
2469.261500,1644
2469.262000,1680
2469.262500,1683
2469.263000,1732
2469.263500,1758
2469.264000,1792
2469.264500,1848
2469.265000,1859
2469.265500,1819
2469.266000,1813
2469.266500,1824
2469.267000,1810
2469.267500,1819
2469.268000,1846
2469.268500,1849
2469.269000,1859
2469.269500,1922
2469.270000,1920
2469.270500,1845
2469.271000,1838
2469.271500,1844
2469.272000,1823
2469.272500,1790
2469.273000,1780
2469.273500,1769
2469.274000,1785
2469.274500,1835
2469.275000,1905
2469.275500,1941
2469.276000,2005
2469.276500,1994
2469.277000,1959
2469.277500,1868
2469.278000,1829
2469.278500,1806
2469.279000,1838
2469.279500,1922
2469.280000,1911
2469.280500,1782
2469.281000,1624
2469.281500,1527
2469.282000,1650
2469.282500,1788
2469.283000,1846
2469.283500,1853
2469.284000,1828
2469.284500,1845
2469.285000,1872
2469.285500,1825
2469.286000,1753
2469.286500,1683
2469.287000,1630
2469.287500,1627
2469.288000,1676
2469.288500,1659
2469.289000,1671
2469.289500,1677
2469.290000,1695
2469.290500,1697
2469.291000,1738
2469.291500,1778
2469.292000,1862
2469.292500,1935
2469.293000,1995
2469.293500,1978
2469.294000,1940
2469.294500,1879
2469.295000,1785
2469.295500,1674
2469.296000,1773
2469.296500,1926
2469.297000,2010
2469.297500,2004
2469.298000,1956
2469.298500,1832
2469.299000,1764
2469.299500,1731
2469.300000,1692
2469.300500,1656
2469.301000,1674
2469.301500,1756
2469.302000,1812
2469.302500,1823
2469.303000,1858
2469.303500,1854
2469.304000,1871
2469.304500,1974
2469.305000,2012
2469.305500,1892
2469.306000,1841
2469.306500,1971
2469.307000,2025
2469.307500,2018
2469.308000,2015
2469.308500,1974
2469.309000,1919
2469.309500,1762
2469.310000,1584
2469.310500,1454
2469.311000,1472
2469.311500,1554
2469.312000,1557
2469.312500,1536
2469.313000,1530
2469.313500,1582
2469.314000,1691
2469.314500,1820
2469.315000,1882
2469.315500,1883
2469.316000,1869
2469.316500,1896
2469.317000,1924
2469.317500,1901
2469.318000,1882
2469.318500,1879
2469.319000,1804
2469.319500,1711
2469.320000,1609
2469.320500,1648
2469.321000,1848
2469.321500,2053
2469.322000,2144
2469.322500,2147
2469.323000,2134
2469.323500,2041
2469.324000,1820
2469.324500,1675
2469.325000,1606
2469.325500,1575
2469.326000,1634
2469.326500,1742
2469.327000,1796
2469.327500,1814
2469.328000,1807
2469.328500,1754
2469.329000,1679
2469.329500,1743
2469.330000,1810
2469.330500,1855
2469.331000,1855
2469.331500,1827
2469.332000,1674
2469.332500,1574
2469.333000,1693
2469.333500,1869
2469.334000,1930
2469.334500,1940
2469.335000,2012
2469.335500,2007
2469.336000,1960
2469.336500,1928
2469.337000,1866
2469.337500,1910
2469.338000,1989
2469.338500,1953
2469.339000,1762
2469.339500,1632
2469.340000,1584
2469.340500,1499
2469.341000,1459
2469.341500,1582
2469.342000,1696
2469.342500,1780
2469.343000,1858
2469.343500,1863
2469.344000,1824
2469.344500,1821
2469.345000,1863
2469.345500,1826
2469.346000,1814
2469.346500,1866
2469.347000,1906
2469.347500,1909
2469.348000,1888
2469.348500,1881
2469.349000,1809
2469.349500,1740
2469.350000,1729
2469.350500,1719
2469.351000,1692
2469.351500,1674
2469.352000,1799
2469.352500,2001
2469.353000,2199
2469.353500,2298
2469.354000,2234
2469.354500,2089
2469.355000,1938
2469.355500,1850
2469.356000,1748
2469.356500,1582
2469.357000,1401
2469.357500,1331
2469.358000,1456
2469.358500,1626
2469.359000,1700
2469.359500,1782
2469.360000,1789
2469.360500,1771
2469.361000,1780
2469.361500,1782
2469.362000,1730
2469.362500,1728
2469.363000,1784
2469.363500,1830
2469.364000,1801
2469.364500,1834
2469.365000,1917
2469.365500,1978
2469.366000,1962
2469.366500,1902
2469.367000,1746
2469.367500,1596
2469.368000,1562
2469.368500,1658
2469.369000,1726
2469.369500,1778
2469.370000,1808
2469.370500,1811
2469.371000,1850
2469.371500,1905
2469.372000,1922
2469.372500,1940
2469.373000,1999
2469.373500,2050
2469.374000,2030
2469.374500,1986
2469.375000,1927
2469.375500,1825
2469.376000,1770
2469.376500,1805
2469.377000,1807
2469.377500,1726
2469.378000,1665
2469.378500,1645
2469.379000,1665
2469.379500,1658
2469.380000,1649
2469.380500,1640
2469.381000,1644
2469.381500,1703
2469.382000,1758
2469.382500,1808
2469.383000,1851
2469.383500,1934
2469.384000,1940
2469.384500,1953
2469.385000,1916
2469.385500,1812
2469.386000,1738
2469.386500,1787
2469.387000,1876
2469.387500,1934
2469.388000,1939
2469.388500,1959
2469.389000,1937
2469.389500,1876
2469.390000,1831
2469.390500,1771
2469.391000,1698
2469.391500,1642
2469.392000,1620
2469.392500,1678
2469.393000,1787
2469.393500,1885
2469.394000,1973
2469.394500,2042
2469.395000,1974
2469.395500,1852
2469.396000,1781
2469.396500,1761
2469.397000,1719
2469.397500,1676
2469.398000,1678
2469.398500,1681
2469.399000,1678
2469.399500,1706
2469.400000,1734
2469.400500,1726
2469.401000,1682
2469.401500,1707
2469.402000,1736
2469.402500,1772
2469.403000,1819
2469.403500,1885
2469.404000,1947
2469.404500,2002
2469.405000,2036
2469.405500,1947
2469.406000,1803
2469.406500,1773
2469.407000,1840
2469.407500,1905
2469.408000,1918
2469.408500,1850
2469.409000,1796
2469.409500,1828
2469.410000,1813
2469.410500,1725
2469.411000,1639
2469.411500,1624
2469.412000,1653
2469.412500,1673
2469.413000,1695
2469.413500,1762
2469.414000,1916
2469.414500,2060
2469.415000,2135
2469.415500,2095
2469.416000,2084
2469.416500,2087
2469.417000,2042
2469.417500,1918
2469.418000,1704
2469.418500,1543
2469.419000,1557
2469.419500,1608
2469.420000,1607
2469.420500,1569
2469.421000,1555
2469.421500,1621
2469.422000,1704
2469.422500,1728
2469.423000,1772
2469.423500,1831
2469.424000,1836
2469.424500,1847
2469.425000,1874
2469.425500,1862
2469.426000,1860
2469.426500,1886
2469.427000,1867
2469.427500,1815
2469.428000,1821
2469.428500,1864
2469.429000,1871
2469.429500,1839
2469.430000,1833
2469.430500,1787
2469.431000,1758
2469.431500,1819
2469.432000,1826
2469.432500,1801
2469.433000,1776
2469.433500,1746
2469.434000,1683
2469.434500,1768
2469.435000,1913
2469.435500,2014
2469.436000,1963
2469.436500,1888
2469.437000,1762
2469.437500,1650
2469.438000,1779
2469.438500,2008
2469.439000,2119
2469.439500,2181
2469.440000,2106
2469.440500,1943
2469.441000,1796
2469.441500,1718
2469.442000,1636
2469.442500,1552
2469.443000,1573
2469.443500,1633
2469.444000,1638
2469.444500,1671
2469.445000,1685
2469.445500,1700
2469.446000,1686
2469.446500,1681
2469.447000,1733
2469.447500,1856
2469.448000,1980
2469.448500,2059
2469.449000,2027
2469.449500,1969
2469.450000,1839
2469.450500,1803
2469.451000,1830
2469.451500,1872
2469.452000,1768
2469.452500,1638
2469.453000,1602
2469.453500,1659
2469.454000,1730
2469.454500,1834
2469.455000,1870
2469.455500,1856
2469.456000,1837
2469.456500,1808
2469.457000,1700
2469.457500,1618
2469.458000,1644
2469.458500,1710
2469.459000,1733
2469.459500,1779
2469.460000,1794
2469.460500,1773
2469.461000,1776
2469.461500,1867
2469.462000,1893
2469.462500,1866
2469.463000,1812
2469.463500,1785
2469.464000,1817
2469.464500,1870
2469.465000,1865
2469.465500,1846
2469.466000,1848
2469.466500,1877
2469.467000,1857
2469.467500,1792
2469.468000,1740
2469.468500,1749
2469.469000,1876
2469.469500,1988
2469.470000,1985
2469.470500,1841
2469.471000,1666
2469.471500,1624
2469.472000,1706
2469.472500,1828
2469.473000,2012
2469.473500,2135
2469.474000,2147
2469.474500,2094
2469.475000,2052
2469.475500,1963
2469.476000,1837
2469.476500,1738
2469.477000,1716
2469.477500,1702
2469.478000,1746
2469.478500,1761
2469.479000,1645
2469.479500,1517
2469.480000,1580
2469.480500,1726
2469.481000,1828
2469.481500,1841
2469.482000,1808
2469.482500,1811
2469.483000,1798
2469.483500,1732
2469.484000,1650
2469.484500,1723
2469.485000,1817
2469.485500,1866
2469.486000,1851
2469.486500,1837
2469.487000,1828
2469.487500,1802
2469.488000,1850
2469.488500,1924
2469.489000,1954
2469.489500,1956
2469.490000,1905
2469.490500,1815
2469.491000,1800
2469.491500,1877
2469.492000,1834
2469.492500,1738
2469.493000,1653
2469.493500,1614
2469.494000,1616
2469.494500,1711
2469.495000,1851
2469.495500,1940
2469.496000,1997
2469.496500,1986
2469.497000,1820
2469.497500,1643
2469.498000,1635
2469.498500,1774
2469.499000,1816
2469.499500,1820
2469.500000,1840
2469.500500,1843
2469.501000,1834
2469.501500,1802
2469.502000,1684
2469.502500,1574
2469.503000,1600
2469.503500,1724
2469.504000,1770
2469.504500,1770
2469.505000,1784
2469.505500,1796
2469.506000,1825
2469.506500,1852
2469.507000,1842
2469.507500,1839
2469.508000,1872
2469.508500,1876
2469.509000,1835
2469.509500,1837
2469.510000,1929
2469.510500,2026
2469.511000,2057
2469.511500,2022
2469.512000,1928
2469.512500,1819
2469.513000,1728
2469.513500,1672
2469.514000,1668
2469.514500,1789
2469.515000,1841
2469.515500,1856
2469.516000,1851
2469.516500,1799
2469.517000,1674
2469.517500,1611
2469.518000,1669
2469.518500,1709
2469.519000,1714
2469.519500,1773
2469.520000,1877
2469.520500,1884
2469.521000,1864
2469.521500,1858
2469.522000,1853
2469.522500,1853
2469.523000,1919
2469.523500,1978
2469.524000,2021
2469.524500,2054
2469.525000,2082
2469.525500,1929
