# Subject: S01
# Trial: rep50a
# Notes: 
# Muscles: Ch1
# fs=2000 Hz, nch=1, vref=3.3 V
t_s,ch1_code
1505.877500,1813
1505.878000,1812
1505.878500,1803
1505.879000,1795
1505.879500,1808
1505.880000,1804
1505.880500,1799
1505.881000,1809
1505.881500,1815
1505.882000,1799
1505.882500,1808
1505.883000,1815
1505.883500,1804
1505.884000,1798
1505.884500,1814
1505.885000,1804
1505.885500,1798
1505.886000,1812
1505.886500,1813
1505.887000,1798
1505.887500,1817
1505.888000,1816
1505.888500,1802
1505.889000,1799
1505.889500,1812
1505.890000,1805
1505.890500,1799
1505.891000,1810
1505.891500,1817
1505.892000,1800
1505.892500,1813
1505.893000,1823
1505.893500,1810
1505.894000,1801
1505.894500,1818
1505.895000,1806
1505.895500,1801
1505.896000,1815
1505.896500,1817
1505.897000,1797
1505.897500,1814
1505.898000,1815
1505.898500,1795
1505.899000,1788
1505.899500,1806
1505.900000,1799
1505.900500,1795
1505.901000,1810
1505.901500,1814
1505.902000,1798
1505.902500,1812
1505.903000,1817
1505.903500,1804
1505.904000,1792
1505.904500,1806
1505.905000,1798
1505.905500,1793
1505.906000,1806
1505.906500,1811
1505.907000,1794
1505.907500,1809
1505.908000,1814
1505.908500,1802
1505.909000,1795
1505.909500,1814
1505.910000,1804
1505.910500,1796
1505.911000,1811
1505.911500,1815
1505.912000,1797
1505.912500,1812
1505.913000,1818
1505.913500,1804
1505.914000,1797
1505.914500,1814
1505.915000,1804
1505.915500,1801
1505.916000,1813
1505.916500,1817
1505.917000,1797
1505.917500,1813
1505.918000,1816
1505.918500,1801
1505.919000,1794
1505.919500,1812
1505.920000,1802
1505.920500,1797
1505.921000,1812
1505.921500,1815
1505.922000,1797
1505.922500,1808
1505.923000,1815
1505.923500,1802
1505.924000,1796
1505.924500,1811
1505.925000,1804
1505.925500,1796
1505.926000,1813
1505.926500,1816
1505.927000,1799
1505.927500,1816
1505.928000,1815
1505.928500,1802
1505.929000,1795
1505.929500,1812
1505.930000,1801
1505.930500,1796
1505.931000,1809
1505.931500,1812
1505.932000,1802
1505.932500,1811
1505.933000,1814
1505.933500,1803
1505.934000,1796
1505.934500,1810
1505.935000,1803
1505.935500,1796
1505.936000,1810
1505.936500,1816
1505.937000,1796
1505.937500,1813
1505.938000,1814
1505.938500,1802
1505.939000,1796
1505.939500,1808
1505.940000,1803
1505.940500,1798
1505.941000,1810
1505.941500,1816
1505.942000,1799
1505.942500,1811
1505.943000,1815
1505.943500,1807
1505.944000,1798
1505.944500,1814
1505.945000,1804
1505.945500,1800
1505.946000,1810
1505.946500,1818
1505.947000,1800
1505.947500,1807
1505.948000,1814
1505.948500,1802
1505.949000,1795
1505.949500,1812
1505.950000,1804
1505.950500,1800
1505.951000,1810
1505.951500,1815
1505.952000,1799
1505.952500,1816
1505.953000,1813
1505.953500,1801
1505.954000,1798
1505.954500,1812
1505.955000,1804
1505.955500,1800
1505.956000,1811
1505.956500,1817
1505.957000,1798
1505.957500,1810
1505.958000,1816
1505.958500,1801
1505.959000,1797
1505.959500,1812
1505.960000,1801
1505.960500,1797
1505.961000,1809
1505.961500,1795
1505.962000,1798
1505.962500,1814
1505.963000,1815
1505.963500,1803
1505.964000,1794
1505.964500,1813
1505.965000,1802
1505.965500,1798
1505.966000,1812
1505.966500,1797
1505.967000,1797
1505.967500,1809
1505.968000,1816
1505.968500,1802
1505.969000,1796
1505.969500,1812
1505.970000,1802
1505.970500,1797
1505.971000,1813
1505.971500,1807
1505.972000,1798
1505.972500,1813
1505.973000,1818
1505.973500,1807
1505.974000,1808
1505.974500,1817
1505.975000,1805
1505.975500,1802
1505.976000,1813
1505.976500,1805
1505.977000,1801
1505.977500,1810
1505.978000,1815
1505.978500,1799
1505.979000,1809
1505.979500,1804
1505.980000,1796
1505.980500,1794
1505.981000,1809
1505.981500,1792
1505.982000,1796
1505.982500,1812
1505.983000,1816
1505.983500,1803
1505.984000,1795
1505.984500,1813
1505.985000,1803
1505.985500,1797
1505.986000,1810
1505.986500,1818
1505.987000,1797
1505.987500,1814
1505.988000,1816
1505.988500,1801
1505.989000,1793
1505.989500,1810
1505.990000,1802
1505.990500,1795
1505.991000,1810
1505.991500,1809
1505.992000,1797
1505.992500,1809
1505.993000,1815
1505.993500,1801
1505.994000,1801
1505.994500,1813
1505.995000,1802
1505.995500,1796
1505.996000,1811
1505.996500,1816
1505.997000,1797
1505.997500,1810
1505.998000,1818
1505.998500,1801
1505.999000,1795
1505.999500,1812
1506.000000,1803
1506.000500,1799
1506.001000,1811
1506.001500,1816
1506.002000,1799
1506.002500,1813
1506.003000,1817
1506.003500,1805
1506.004000,1796
1506.004500,1811
1506.005000,1801
1506.005500,1796
1506.006000,1806
1506.006500,1815
1506.007000,1795
1506.007500,1814
1506.008000,1816
1506.008500,1802
1506.009000,1797
1506.009500,1813
1506.010000,1804
1506.010500,1798
1506.011000,1812
1506.011500,1817
1506.012000,1801
1506.012500,1813
1506.013000,1816
1506.013500,1803
1506.014000,1797
1506.014500,1812
1506.015000,1804
1506.015500,1797
1506.016000,1810
1506.016500,1814
1506.017000,1798
1506.017500,1811
1506.018000,1813
1506.018500,1800
1506.019000,1794
1506.019500,1813
1506.020000,1807
1506.020500,1800
1506.021000,1814
1506.021500,1817
1506.022000,1801
1506.022500,1810
1506.023000,1818
1506.023500,1804
1506.024000,1797
1506.024500,1811
1506.025000,1804
1506.025500,1800
1506.026000,1810
1506.026500,1814
1506.027000,1802
1506.027500,1807
1506.028000,1812
1506.028500,1803
1506.029000,1796
1506.029500,1812
1506.030000,1802
1506.030500,1799
1506.031000,1809
1506.031500,1815
1506.032000,1799
1506.032500,1809
1506.033000,1815
1506.033500,1802
1506.034000,1798
1506.034500,1813
1506.035000,1804
1506.035500,1799
1506.036000,1811
1506.036500,1816
1506.037000,1800
1506.037500,1810
1506.038000,1816
1506.038500,1803
1506.039000,1797
1506.039500,1812
1506.040000,1802
1506.040500,1796
1506.041000,1812
1506.041500,1813
1506.042000,1799
1506.042500,1808
1506.043000,1815
1506.043500,1805
1506.044000,1794
1506.044500,1811
1506.045000,1803
1506.045500,1797
1506.046000,1810
1506.046500,1815
1506.047000,1799
1506.047500,1810
1506.048000,1813
1506.048500,1804
1506.049000,1799
1506.049500,1814
1506.050000,1807
1506.050500,1799
1506.051000,1814
1506.051500,1815
1506.052000,1801
1506.052500,1812
1506.053000,1812
1506.053500,1800
1506.054000,1790
1506.054500,1806
1506.055000,1798
1506.055500,1794
1506.056000,1807
1506.056500,1815
1506.057000,1800
1506.057500,1807
1506.058000,1814
1506.058500,1802
1506.059000,1793
1506.059500,1813
1506.060000,1802
1506.060500,1796
1506.061000,1812
1506.061500,1815
1506.062000,1801
1506.062500,1811
1506.063000,1815
1506.063500,1802
1506.064000,1797
1506.064500,1814
1506.065000,1803
1506.065500,1800
1506.066000,1810
1506.066500,1816
1506.067000,1798
1506.067500,1809
1506.068000,1817
1506.068500,1803
1506.069000,1795
1506.069500,1813
1506.070000,1803
1506.070500,1797
1506.071000,1812
1506.071500,1813
1506.072000,1798
1506.072500,1810
1506.073000,1816
1506.073500,1801
1506.074000,1796
1506.074500,1814
1506.075000,1803
1506.075500,1799
1506.076000,1809
1506.076500,1816
1506.077000,1797
1506.077500,1814
1506.078000,1816
1506.078500,1801
1506.079000,1794
1506.079500,1812
1506.080000,1802
1506.080500,1797
1506.081000,1811
1506.081500,1816
1506.082000,1795
1506.082500,1812
1506.083000,1815
1506.083500,1803
1506.084000,1794
1506.084500,1812
1506.085000,1804
1506.085500,1797
1506.086000,1812
1506.086500,1815
1506.087000,1797
1506.087500,1809
1506.088000,1816
1506.088500,1803
1506.089000,1796
1506.089500,1813
1506.090000,1803
1506.090500,1798
1506.091000,1810
1506.091500,1802
1506.092000,1794
1506.092500,1806
1506.093000,1815
1506.093500,1801
1506.094000,1815
1506.094500,1811
1506.095000,1801
1506.095500,1793
1506.096000,1810
1506.096500,1802
1506.097000,1799
1506.097500,1810
1506.098000,1816
1506.098500,1802
1506.099000,1800
1506.099500,1816
1506.100000,1802
1506.100500,1799
1506.101000,1812
1506.101500,1805
1506.102000,1800
1506.102500,1816
1506.103000,1816
1506.103500,1802
1506.104000,1811
1506.104500,1814
1506.105000,1802
1506.105500,1797
1506.106000,1812
1506.106500,1805
1506.107000,1800
1506.107500,1812
1506.108000,1816
1506.108500,1801
1506.109000,1807
1506.109500,1815
1506.110000,1801
1506.110500,1796
1506.111000,1811
1506.111500,1804
1506.112000,1797
1506.112500,1809
1506.113000,1814
1506.113500,1801
1506.114000,1808
1506.114500,1812
1506.115000,1800
1506.115500,1796
1506.116000,1812
1506.116500,1800
1506.117000,1799
1506.117500,1813
1506.118000,1817
1506.118500,1800
1506.119000,1808
1506.119500,1813
1506.120000,1800
1506.120500,1796
1506.121000,1810
1506.121500,1803
1506.122000,1796
1506.122500,1811
1506.123000,1817
1506.123500,1800
1506.124000,1811
1506.124500,1815
1506.125000,1802
1506.125500,1797
1506.126000,1814
1506.126500,1803
1506.127000,1797
1506.127500,1813
1506.128000,1806
1506.128500,1804
1506.129000,1813
1506.129500,1820
1506.130000,1804
1506.130500,1822
1506.131000,1814
1506.131500,1805
1506.132000,1798
1506.132500,1813
1506.133000,1803
1506.133500,1793
1506.134000,1802
1506.134500,1809
1506.135000,1798
1506.135500,1797
1506.136000,1814
1506.136500,1800
1506.137000,1798
1506.137500,1816
1506.138000,1805
1506.138500,1799
1506.139000,1808
1506.139500,1814
1506.140000,1800
1506.140500,1810
1506.141000,1814
1506.141500,1801
1506.142000,1796
1506.142500,1811
1506.143000,1805
1506.143500,1800
1506.144000,1811
1506.144500,1818
1506.145000,1798
1506.145500,1807
1506.146000,1815
1506.146500,1804
1506.147000,1799
1506.147500,1820
1506.148000,1805
1506.148500,1800
1506.149000,1811
1506.149500,1816
1506.150000,1801
1506.150500,1807
1506.151000,1814
1506.151500,1800
1506.152000,1796
1506.152500,1812
1506.153000,1803
1506.153500,1797
1506.154000,1807
1506.154500,1813
1506.155000,1796
1506.155500,1806
1506.156000,1811
1506.156500,1799
1506.157000,1793
1506.157500,1813
1506.158000,1802
1506.158500,1797
1506.159000,1810
1506.159500,1816
1506.160000,1798
1506.160500,1809
1506.161000,1815
1506.161500,1802
1506.162000,1807
1506.162500,1818
1506.163000,1801
1506.163500,1794
1506.164000,1807
1506.164500,1800
1506.165000,1801
1506.165500,1808
1506.166000,1813
1506.166500,1797
1506.167000,1820
1506.167500,1813
1506.168000,1804
1506.168500,1799
1506.169000,1812
1506.169500,1804
1506.170000,1799
1506.170500,1810
1506.171000,1815
1506.171500,1802
1506.172000,1801
1506.172500,1820
1506.173000,1804
1506.173500,1799
1506.174000,1812
1506.174500,1802
1506.175000,1799
1506.175500,1808
1506.176000,1817
1506.176500,1797
1506.177000,1806
1506.177500,1817
1506.178000,1802
1506.178500,1799
1506.179000,1812
1506.179500,1802
1506.180000,1800
1506.180500,1810
1506.181000,1815
1506.181500,1799
1506.182000,1807
1506.182500,1817
1506.183000,1801
1506.183500,1797
1506.184000,1814
1506.184500,1803
1506.185000,1797
1506.185500,1810
1506.186000,1816
1506.186500,1797
1506.187000,1809
1506.187500,1813
1506.188000,1803
1506.188500,1798
1506.189000,1814
1506.189500,1802
1506.190000,1798
1506.190500,1810
1506.191000,1818
1506.191500,1795
1506.192000,1809
1506.192500,1820
1506.193000,1801
1506.193500,1798
1506.194000,1813
1506.194500,1802
1506.195000,1797
1506.195500,1812
1506.196000,1801
1506.196500,1797
1506.197000,1809
1506.197500,1820
1506.198000,1802
1506.198500,1818
1506.199000,1811
1506.199500,1801
1506.200000,1795
1506.200500,1811
1506.201000,1807
1506.201500,1803
1506.202000,1813
1506.202500,1819
1506.203000,1804
1506.203500,1806
1506.204000,1818
1506.204500,1803
1506.205000,1798
1506.205500,1810
1506.206000,1801
1506.206500,1791
1506.207000,1804
1506.207500,1812
1506.208000,1795
1506.208500,1809
1506.209000,1809
1506.209500,1798
1506.210000,1797
1506.210500,1811
1506.211000,1805
1506.211500,1800
1506.212000,1810
1506.212500,1821
1506.213000,1801
1506.213500,1810
1506.214000,1814
1506.214500,1802
1506.215000,1796
1506.215500,1813
1506.216000,1805
1506.216500,1799
1506.217000,1810
1506.217500,1822
1506.218000,1800
1506.218500,1812
1506.219000,1814
1506.219500,1799
1506.220000,1796
1506.220500,1813
1506.221000,1802
1506.221500,1797
1506.222000,1811
1506.222500,1807
1506.223000,1799
1506.223500,1811
1506.224000,1814
1506.224500,1801
1506.225000,1813
1506.225500,1812
1506.226000,1801
1506.226500,1799
1506.227000,1811
1506.227500,1809
1506.228000,1799
1506.228500,1809
1506.229000,1814
1506.229500,1798
1506.230000,1801
1506.230500,1813
1506.231000,1801
1506.231500,1794
1506.232000,1809
1506.232500,1810
1506.233000,1799
1506.233500,1809
1506.234000,1815
1506.234500,1800
1506.235000,1809
1506.235500,1814
1506.236000,1800
1506.236500,1798
1506.237000,1812
1506.237500,1804
1506.238000,1797
1506.238500,1810
1506.239000,1812
1506.239500,1797
1506.240000,1808
1506.240500,1814
1506.241000,1802
1506.241500,1794
1506.242000,1811
1506.242500,1807
1506.243000,1800
1506.243500,1814
1506.244000,1814
1506.244500,1800
1506.245000,1808
1506.245500,1813
1506.246000,1802
1506.246500,1798
1506.247000,1812
1506.247500,1805
1506.248000,1798
1506.248500,1813
1506.249000,1815
1506.249500,1799
1506.250000,1809
1506.250500,1815
1506.251000,1802
1506.251500,1796
1506.252000,1815
1506.252500,1811
1506.253000,1800
1506.253500,1812
1506.254000,1815
1506.254500,1803
1506.255000,1812
1506.255500,1813
1506.256000,1800
1506.256500,1793
1506.257000,1810
1506.257500,1802
1506.258000,1800
1506.258500,1810
1506.259000,1815
1506.259500,1796
1506.260000,1810
1506.260500,1815
1506.261000,1800
1506.261500,1796
1506.262000,1812
1506.262500,1806
1506.263000,1798
1506.263500,1811
1506.264000,1814
1506.264500,1797
1506.265000,1807
1506.265500,1813
1506.266000,1800
1506.266500,1793
1506.267000,1810
1506.267500,1807
1506.268000,1797
1506.268500,1812
1506.269000,1796
1506.269500,1797
1506.270000,1810
1506.270500,1815
1506.271000,1798
1506.271500,1809
1506.272000,1812
1506.272500,1804
1506.273000,1796
1506.273500,1813
1506.274000,1801
1506.274500,1795
1506.275000,1809
1506.275500,1813
1506.276000,1799
1506.276500,1808
1506.277000,1813
1506.277500,1803
1506.278000,1797
1506.278500,1817
1506.279000,1811
1506.279500,1806
1506.280000,1817
1506.280500,1820
1506.281000,1806
1506.281500,1813
1506.282000,1818
1506.282500,1805
1506.283000,1799
1506.283500,1813
1506.284000,1802
1506.284500,1793
1506.285000,1801
1506.285500,1808
1506.286000,1792
1506.286500,1804
1506.287000,1808
1506.287500,1799
1506.288000,1793
1506.288500,1812
1506.289000,1800
1506.289500,1792
1506.290000,1806
1506.290500,1813
1506.291000,1800
1506.291500,1807
1506.292000,1811
1506.292500,1805
1506.293000,1795
1506.293500,1812
1506.294000,1803
1506.294500,1797
1506.295000,1811
1506.295500,1815
1506.296000,1800
1506.296500,1809
1506.297000,1815
1506.297500,1804
1506.298000,1799
1506.298500,1815
1506.299000,1806
1506.299500,1801
1506.300000,1811
1506.300500,1817
1506.301000,1804
1506.301500,1811
1506.302000,1818
1506.302500,1808
1506.303000,1805
1506.303500,1818
1506.304000,1809
1506.304500,1802
1506.305000,1813
1506.305500,1819
1506.306000,1804
1506.306500,1808
1506.307000,1814
1506.307500,1799
1506.308000,1794
1506.308500,1816
1506.309000,1805
1506.309500,1797
1506.310000,1809
1506.310500,1812
1506.311000,1792
1506.311500,1803
1506.312000,1811
1506.312500,1795
1506.313000,1792
1506.313500,1809
1506.314000,1801
1506.314500,1794
1506.315000,1804
1506.315500,1812
1506.316000,1795
1506.316500,1806
1506.317000,1809
1506.317500,1799
1506.318000,1793
1506.318500,1811
1506.319000,1798
1506.319500,1795
1506.320000,1808
1506.320500,1814
1506.321000,1799
1506.321500,1805
1506.322000,1813
1506.322500,1799
1506.323000,1796
1506.323500,1812
1506.324000,1805
1506.324500,1798
1506.325000,1810
1506.325500,1815
1506.326000,1799
1506.326500,1808
1506.327000,1814
1506.327500,1807
1506.328000,1798
1506.328500,1814
1506.329000,1804
1506.329500,1799
1506.330000,1812
1506.330500,1815
1506.331000,1801
1506.331500,1812
1506.332000,1815
1506.332500,1805
1506.333000,1799
1506.333500,1813
1506.334000,1804
1506.334500,1797
1506.335000,1811
1506.335500,1818
1506.336000,1797
1506.336500,1806
1506.337000,1813
1506.337500,1802
1506.338000,1798
1506.338500,1813
1506.339000,1803
1506.339500,1800
1506.340000,1813
1506.340500,1816
1506.341000,1800
1506.341500,1808
1506.342000,1817
1506.342500,1809
1506.343000,1797
1506.343500,1811
1506.344000,1804
1506.344500,1800
1506.345000,1813
1506.345500,1818
1506.346000,1803
1506.346500,1812
1506.347000,1816
1506.347500,1812
1506.348000,1803
1506.348500,1819
1506.349000,1813
1506.349500,1808
1506.350000,1820
1506.350500,1824
1506.351000,1804
1506.351500,1816
1506.352000,1820
1506.352500,1807
1506.353000,1801
1506.353500,1817
1506.354000,1806
1506.354500,1800
1506.355000,1811
1506.355500,1814
1506.356000,1794
1506.356500,1810
1506.357000,1810
1506.357500,1801
1506.358000,1795
1506.358500,1811
1506.359000,1798
1506.359500,1793
1506.360000,1804
1506.360500,1807
1506.361000,1794
1506.361500,1805
1506.362000,1806
1506.362500,1794
1506.363000,1788
1506.363500,1802
1506.364000,1796
1506.364500,1786
1506.365000,1799
1506.365500,1808
1506.366000,1793
1506.366500,1803
1506.367000,1809
1506.367500,1803
1506.368000,1794
1506.368500,1811
1506.369000,1804
1506.369500,1797
1506.370000,1810
1506.370500,1817
1506.371000,1802
1506.371500,1812
1506.372000,1821
1506.372500,1806
1506.373000,1806
1506.373500,1822
1506.374000,1814
1506.374500,1807
1506.375000,1815
1506.375500,1818
1506.376000,1799
1506.376500,1808
1506.377000,1813
1506.377500,1805
1506.378000,1800
1506.378500,1813
1506.379000,1803
1506.379500,1795
1506.380000,1803
1506.380500,1807
1506.381000,1794
1506.381500,1801
1506.382000,1810
1506.382500,1798
1506.383000,1794
1506.383500,1809
1506.384000,1801
1506.384500,1792
1506.385000,1804
1506.385500,1810
1506.386000,1795
1506.386500,1797
1506.387000,1814
1506.387500,1800
1506.388000,1797
1506.388500,1812
1506.389000,1808
1506.389500,1800
1506.390000,1810
1506.390500,1816
1506.391000,1800
1506.391500,1796
1506.392000,1810
1506.392500,1801
1506.393000,1797
1506.393500,1814
1506.394000,1810
1506.394500,1804
1506.395000,1816
1506.395500,1820
1506.396000,1807
1506.396500,1818
1506.397000,1821
1506.397500,1812
1506.398000,1806
1506.398500,1819
1506.399000,1809
1506.399500,1804
1506.400000,1815
1506.400500,1821
1506.401000,1805
1506.401500,1810
1506.402000,1811
1506.402500,1799
1506.403000,1790
1506.403500,1803
1506.404000,1794
1506.404500,1792
1506.405000,1803
1506.405500,1810
1506.406000,1795
1506.406500,1805
1506.407000,1810
1506.407500,1808
1506.408000,1797
1506.408500,1813
1506.409000,1803
1506.409500,1796
1506.410000,1808
1506.410500,1812
1506.411000,1793
1506.411500,1806
1506.412000,1811
1506.412500,1800
1506.413000,1794
1506.413500,1811
1506.414000,1804
1506.414500,1801
1506.415000,1812
1506.415500,1818
1506.416000,1801
1506.416500,1809
1506.417000,1816
1506.417500,1805
1506.418000,1801
1506.418500,1814
1506.419000,1805
1506.419500,1800
1506.420000,1811
1506.420500,1817
1506.421000,1801
1506.421500,1814
1506.422000,1813
1506.422500,1801
1506.423000,1794
1506.423500,1809
1506.424000,1804
1506.424500,1798
1506.425000,1810
1506.425500,1814
1506.426000,1799
1506.426500,1810
1506.427000,1815
1506.427500,1809
1506.428000,1800
1506.428500,1813
1506.429000,1805
1506.429500,1799
1506.430000,1812
1506.430500,1818
1506.431000,1801
1506.431500,1812
1506.432000,1818
1506.432500,1812
1506.433000,1811
1506.433500,1826
1506.434000,1816
1506.434500,1807
1506.435000,1821
1506.435500,1827
1506.436000,1814
1506.436500,1824
1506.437000,1827
1506.437500,1809
1506.438000,1804
1506.438500,1816
1506.439000,1803
1506.439500,1795
1506.440000,1803
1506.440500,1802
1506.441000,1784
1506.441500,1796
1506.442000,1796
1506.442500,1788
1506.443000,1783
1506.443500,1801
1506.444000,1792
1506.444500,1787
1506.445000,1803
1506.445500,1807
1506.446000,1791
1506.446500,1803
1506.447000,1806
1506.447500,1795
1506.448000,1793
1506.448500,1808
1506.449000,1801
1506.449500,1795
1506.450000,1809
1506.450500,1814
1506.451000,1801
1506.451500,1808
1506.452000,1815
1506.452500,1802
1506.453000,1799
1506.453500,1809
1506.454000,1805
1506.454500,1800
1506.455000,1810
1506.455500,1815
1506.456000,1797
1506.456500,1811
1506.457000,1813
1506.457500,1802
1506.458000,1796
1506.458500,1813
1506.459000,1803
1506.459500,1798
1506.460000,1810
1506.460500,1815
1506.461000,1798
1506.461500,1808
1506.462000,1816
1506.462500,1806
1506.463000,1802
1506.463500,1816
1506.464000,1804
1506.464500,1798
1506.465000,1811
1506.465500,1816
1506.466000,1801
1506.466500,1807
1506.467000,1814
1506.467500,1797
1506.468000,1789
1506.468500,1806
1506.469000,1798
1506.469500,1793
1506.470000,1803
1506.470500,1810
1506.471000,1800
1506.471500,1805
1506.472000,1812
1506.472500,1800
1506.473000,1797
1506.473500,1815
1506.474000,1809
1506.474500,1803
1506.475000,1819
1506.475500,1827
1506.476000,1814
1506.476500,1824
1506.477000,1826
1506.477500,1822
1506.478000,1819
1506.478500,1836
1506.479000,1827
1506.479500,1826
1506.480000,1834
1506.480500,1837
1506.481000,1820
1506.481500,1824
1506.482000,1825
1506.482500,1811
1506.483000,1800
1506.483500,1814
1506.484000,1796
1506.484500,1787
1506.485000,1797
1506.485500,1798
1506.486000,1784
1506.486500,1789
1506.487000,1793
1506.487500,1784
1506.488000,1779
1506.488500,1799
1506.489000,1786
1506.489500,1779
1506.490000,1790
1506.490500,1796
1506.491000,1780
1506.491500,1798
1506.492000,1800
1506.492500,1789
1506.493000,1786
1506.493500,1803
1506.494000,1792
1506.494500,1790
1506.495000,1805
1506.495500,1805
1506.496000,1794
1506.496500,1807
1506.497000,1813
1506.497500,1798
1506.498000,1817
1506.498500,1816
1506.499000,1805
1506.499500,1801
1506.500000,1817
1506.500500,1802
1506.501000,1803
1506.501500,1813
1506.502000,1821
1506.502500,1805
1506.503000,1818
1506.503500,1822
1506.504000,1808
1506.504500,1802
1506.505000,1816
1506.505500,1810
1506.506000,1800
1506.506500,1813
1506.507000,1817
1506.507500,1798
1506.508000,1800
1506.508500,1815
1506.509000,1800
1506.509500,1797
1506.510000,1811
1506.510500,1802
1506.511000,1798
1506.511500,1809
1506.512000,1810
1506.512500,1795
1506.513000,1808
1506.513500,1809
1506.514000,1796
1506.514500,1794
1506.515000,1809
1506.515500,1798
1506.516000,1794
1506.516500,1808
1506.517000,1813
1506.517500,1798
1506.518000,1812
1506.518500,1816
1506.519000,1809
1506.519500,1806
1506.520000,1821
1506.520500,1812
1506.521000,1808
1506.521500,1821
1506.522000,1827
1506.522500,1819
1506.523000,1828
1506.523500,1830
1506.524000,1815
1506.524500,1811
1506.525000,1822
1506.525500,1812
1506.526000,1805
1506.526500,1814
1506.527000,1811
1506.527500,1795
1506.528000,1804
1506.528500,1805
1506.529000,1793
1506.529500,1787
1506.530000,1803
1506.530500,1794
1506.531000,1784
1506.531500,1797
1506.532000,1800
1506.532500,1788
1506.533000,1798
1506.533500,1800
1506.534000,1789
1506.534500,1790
1506.535000,1806
1506.535500,1801
1506.536000,1795
1506.536500,1807
1506.537000,1811
1506.537500,1798
1506.538000,1811
1506.538500,1816
1506.539000,1802
1506.539500,1799
1506.540000,1816
1506.540500,1808
1506.541000,1800
1506.541500,1806
1506.542000,1812
1506.542500,1800
1506.543000,1810
1506.543500,1816
1506.544000,1803
1506.544500,1798
1506.545000,1813
1506.545500,1806
1506.546000,1799
1506.546500,1815
1506.547000,1818
1506.547500,1804
1506.548000,1815
1506.548500,1817
1506.549000,1804
1506.549500,1796
1506.550000,1811
1506.550500,1804
1506.551000,1796
1506.551500,1811
1506.552000,1815
1506.552500,1807
1506.553000,1817
1506.553500,1819
1506.554000,1808
1506.554500,1803
1506.555000,1818
1506.555500,1810
1506.556000,1806
1506.556500,1818
1506.557000,1821
1506.557500,1803
1506.558000,1813
1506.558500,1820
1506.559000,1806
1506.559500,1798
1506.560000,1812
1506.560500,1801
1506.561000,1791
1506.561500,1806
1506.562000,1812
1506.562500,1799
1506.563000,1799
1506.563500,1804
1506.564000,1792
1506.564500,1789
1506.565000,1807
1506.565500,1801
1506.566000,1799
1506.566500,1823
1506.567000,1836
1506.567500,1829
1506.568000,1846
1506.568500,1850
1506.569000,1834
1506.569500,1831
1506.570000,1845
1506.570500,1832
1506.571000,1820
1506.571500,1823
1506.572000,1822
1506.572500,1805
1506.573000,1808
1506.573500,1812
1506.574000,1794
1506.574500,1782
1506.575000,1793
1506.575500,1781
1506.576000,1773
1506.576500,1783
1506.577000,1788
1506.577500,1773
1506.578000,1783
1506.578500,1789
1506.579000,1775
1506.579500,1772
1506.580000,1790
1506.580500,1780
1506.581000,1772
1506.581500,1788
1506.582000,1796
1506.582500,1789
1506.583000,1797
1506.583500,1805
1506.584000,1794
1506.584500,1788
1506.585000,1808
1506.585500,1801
1506.586000,1797
1506.586500,1810
1506.587000,1817
1506.587500,1806
1506.588000,1811
1506.588500,1816
1506.589000,1801
1506.589500,1799
1506.590000,1815
1506.590500,1809
1506.591000,1805
1506.591500,1818
1506.592000,1819
1506.592500,1806
1506.593000,1812
1506.593500,1816
1506.594000,1804
1506.594500,1799
1506.595000,1818
1506.595500,1806
1506.596000,1800
1506.596500,1812
1506.597000,1813
1506.597500,1801
1506.598000,1804
1506.598500,1810
1506.599000,1796
1506.599500,1794
1506.600000,1810
1506.600500,1802
1506.601000,1798
1506.601500,1812
1506.602000,1818
1506.602500,1805
1506.603000,1808
1506.603500,1813
1506.604000,1802
1506.604500,1800
1506.605000,1817
1506.605500,1810
1506.606000,1801
1506.606500,1815
1506.607000,1823
1506.607500,1808
1506.608000,1815
1506.608500,1817
1506.609000,1806
1506.609500,1801
1506.610000,1819
1506.610500,1807
1506.611000,1801
1506.611500,1809
1506.612000,1812
1506.612500,1800
1506.613000,1798
1506.613500,1810
1506.614000,1796
1506.614500,1792
1506.615000,1809
1506.615500,1802
1506.616000,1798
1506.616500,1809
1506.617000,1811
1506.617500,1797
1506.618000,1808
1506.618500,1813
1506.619000,1800
1506.619500,1792
1506.620000,1808
1506.620500,1804
1506.621000,1798
1506.621500,1806
1506.622000,1813
1506.622500,1797
1506.623000,1808
1506.623500,1814
1506.624000,1799
1506.624500,1796
1506.625000,1811
1506.625500,1804
1506.626000,1799
1506.626500,1812
1506.627000,1819
1506.627500,1811
1506.628000,1819
1506.628500,1825
1506.629000,1813
1506.629500,1812
1506.630000,1827
1506.630500,1819
1506.631000,1815
1506.631500,1833
1506.632000,1844
1506.632500,1836
1506.633000,1845
1506.633500,1842
1506.634000,1826
1506.634500,1813
1506.635000,1822
1506.635500,1812
1506.636000,1803
1506.636500,1812
1506.637000,1813
1506.637500,1793
1506.638000,1800
1506.638500,1799
1506.639000,1781
1506.639500,1768
1506.640000,1774
1506.640500,1767
1506.641000,1766
1506.641500,1781
1506.642000,1789
1506.642500,1775
1506.643000,1779
1506.643500,1796
1506.644000,1785
1506.644500,1786
1506.645000,1807
1506.645500,1801
1506.646000,1795
1506.646500,1806
1506.647000,1812
1506.647500,1804
1506.648000,1806
1506.648500,1821
1506.649000,1810
1506.649500,1807
1506.650000,1825
1506.650500,1822
1506.651000,1815
1506.651500,1831
1506.652000,1840
1506.652500,1830
1506.653000,1828
1506.653500,1843
1506.654000,1830
1506.654500,1824
1506.655000,1834
1506.655500,1824
1506.656000,1812
1506.656500,1816
1506.657000,1813
1506.657500,1791
1506.658000,1789
1506.658500,1799
1506.659000,1781
1506.659500,1773
1506.660000,1790
1506.660500,1782
1506.661000,1777
1506.661500,1790
1506.662000,1801
1506.662500,1795
1506.663000,1794
1506.663500,1805
1506.664000,1793
1506.664500,1790
1506.665000,1804
1506.665500,1798
1506.666000,1791
1506.666500,1797
1506.667000,1802
1506.667500,1795
1506.668000,1794
1506.668500,1807
1506.669000,1793
1506.669500,1789
1506.670000,1806
1506.670500,1802
1506.671000,1798
1506.671500,1807
1506.672000,1811
1506.672500,1801
1506.673000,1825
1506.673500,1816
1506.674000,1806
1506.674500,1802
1506.675000,1817
1506.675500,1808
1506.676000,1805
1506.676500,1817
1506.677000,1819
1506.677500,1805
1506.678000,1816
1506.678500,1816
1506.679000,1801
1506.679500,1792
1506.680000,1807
1506.680500,1799
1506.681000,1788
1506.681500,1803
1506.682000,1810
1506.682500,1800
1506.683000,1799
1506.683500,1814
1506.684000,1799
1506.684500,1798
1506.685000,1811
1506.685500,1808
1506.686000,1799
1506.686500,1810
1506.687000,1815
1506.687500,1802
1506.688000,1823
1506.688500,1814
1506.689000,1800
1506.689500,1795
1506.690000,1808
1506.690500,1798
1506.691000,1796
1506.691500,1812
1506.692000,1816
1506.692500,1803
1506.693000,1824
1506.693500,1818
1506.694000,1804
1506.694500,1797
1506.695000,1810
1506.695500,1802
1506.696000,1793
1506.696500,1802
1506.697000,1810
1506.697500,1794
1506.698000,1801
1506.698500,1817
1506.699000,1801
1506.699500,1796
1506.700000,1811
1506.700500,1806
1506.701000,1798
1506.701500,1813
1506.702000,1818
1506.702500,1801
1506.703000,1820
1506.703500,1824
1506.704000,1822
1506.704500,1830
1506.705000,1846
1506.705500,1838
1506.706000,1836
1506.706500,1843
1506.707000,1851
1506.707500,1831
1506.708000,1832
1506.708500,1836
1506.709000,1817
1506.709500,1807
1506.710000,1815
1506.710500,1794
1506.711000,1786
1506.711500,1786
1506.712000,1781
1506.712500,1770
1506.713000,1763
1506.713500,1784
1506.714000,1773
1506.714500,1767
1506.715000,1781
1506.715500,1789
1506.716000,1776
1506.716500,1790
1506.717000,1799
1506.717500,1786
1506.718000,1788
1506.718500,1806
1506.719000,1796
1506.719500,1789
1506.720000,1802
1506.720500,1790
1506.721000,1791
1506.721500,1800
1506.722000,1805
1506.722500,1795
1506.723000,1807
1506.723500,1813
1506.724000,1802
1506.724500,1796
1506.725000,1813
1506.725500,1801
1506.726000,1800
1506.726500,1813
1506.727000,1817
1506.727500,1807
1506.728000,1817
1506.728500,1817
1506.729000,1807
1506.729500,1800
1506.730000,1813
1506.730500,1802
1506.731000,1802
1506.731500,1812
1506.732000,1818
1506.732500,1808
1506.733000,1815
1506.733500,1811
1506.734000,1801
1506.734500,1796
1506.735000,1811
1506.735500,1804
1506.736000,1797
1506.736500,1805
1506.737000,1815
1506.737500,1803
1506.738000,1798
1506.738500,1816
1506.739000,1801
1506.739500,1797
1506.740000,1813
1506.740500,1804
1506.741000,1800
1506.741500,1815
1506.742000,1818
1506.742500,1807
1506.743000,1798
1506.743500,1817
1506.744000,1802
1506.744500,1798
1506.745000,1813
1506.745500,1794
1506.746000,1804
1506.746500,1816
1506.747000,1826
1506.747500,1813
1506.748000,1827
1506.748500,1828
1506.749000,1815
1506.749500,1806
1506.750000,1819
1506.750500,1808
1506.751000,1804
1506.751500,1815
1506.752000,1819
1506.752500,1804
1506.753000,1814
1506.753500,1809
1506.754000,1793
1506.754500,1787
1506.755000,1799
1506.755500,1789
1506.756000,1791
1506.756500,1803
1506.757000,1808
1506.757500,1794
1506.758000,1791
1506.758500,1806
1506.759000,1794
1506.759500,1788
1506.760000,1803
1506.760500,1811
1506.761000,1795
1506.761500,1806
1506.762000,1813
1506.762500,1802
1506.763000,1798
1506.763500,1818
1506.764000,1805
1506.764500,1798
1506.765000,1811
1506.765500,1818
1506.766000,1802
1506.766500,1815
1506.767000,1826
1506.767500,1819
1506.768000,1814
1506.768500,1834
1506.769000,1824
1506.769500,1821
1506.770000,1840
1506.770500,1847
1506.771000,1826
1506.771500,1837
1506.772000,1836
1506.772500,1824
1506.773000,1807
1506.773500,1815
1506.774000,1795
1506.774500,1780
1506.775000,1787
1506.775500,1788
1506.776000,1768
1506.776500,1778
1506.777000,1774
1506.777500,1763
1506.778000,1761
1506.778500,1780
1506.779000,1774
1506.779500,1774
1506.780000,1792
1506.780500,1802
1506.781000,1785
1506.781500,1802
1506.782000,1810
1506.782500,1800
1506.783000,1796
1506.783500,1811
1506.784000,1802
1506.784500,1798
1506.785000,1815
1506.785500,1818
1506.786000,1798
1506.786500,1812
1506.787000,1813
1506.787500,1805
1506.788000,1798
1506.788500,1814
1506.789000,1805
1506.789500,1800
1506.790000,1819
1506.790500,1829
1506.791000,1814
1506.791500,1829
1506.792000,1832
1506.792500,1818
1506.793000,1814
1506.793500,1831
1506.794000,1821
1506.794500,1811
1506.795000,1824
1506.795500,1823
1506.796000,1807
1506.796500,1806
1506.797000,1803
1506.797500,1790
1506.798000,1782
1506.798500,1794
1506.799000,1783
1506.799500,1775
1506.800000,1790
1506.800500,1797
1506.801000,1783
1506.801500,1794
1506.802000,1803
1506.802500,1792
1506.803000,1791
1506.803500,1805
1506.804000,1801
1506.804500,1798
1506.805000,1810
1506.805500,1815
1506.806000,1800
1506.806500,1812
1506.807000,1814
1506.807500,1803
1506.808000,1796
1506.808500,1814
1506.809000,1804
1506.809500,1797
1506.810000,1810
1506.810500,1816
1506.811000,1798
1506.811500,1812
1506.812000,1814
1506.812500,1801
1506.813000,1798
1506.813500,1814
1506.814000,1808
1506.814500,1801
1506.815000,1812
1506.815500,1819
1506.816000,1802
1506.816500,1817
1506.817000,1818
1506.817500,1807
1506.818000,1803
1506.818500,1824
1506.819000,1820
1506.819500,1816
1506.820000,1828
1506.820500,1829
1506.821000,1812
1506.821500,1823
1506.822000,1822
1506.822500,1810
1506.823000,1802
1506.823500,1819
1506.824000,1807
1506.824500,1799
1506.825000,1808
1506.825500,1808
1506.826000,1787
1506.826500,1786
1506.827000,1792
1506.827500,1781
1506.828000,1781
1506.828500,1800
1506.829000,1791
1506.829500,1785
1506.830000,1799
1506.830500,1807
1506.831000,1792
1506.831500,1795
1506.832000,1809
1506.832500,1800
1506.833000,1792
1506.833500,1811
1506.834000,1804
1506.834500,1795
1506.835000,1807
1506.835500,1813
1506.836000,1799
1506.836500,1818
1506.837000,1814
1506.837500,1804
1506.838000,1800
1506.838500,1815
1506.839000,1805
1506.839500,1802
1506.840000,1814
1506.840500,1822
1506.841000,1806
1506.841500,1819
1506.842000,1819
1506.842500,1814
1506.843000,1804
1506.843500,1818
1506.844000,1812
1506.844500,1805
1506.845000,1815
1506.845500,1818
1506.846000,1801
1506.846500,1814
1506.847000,1811
1506.847500,1802
1506.848000,1796
1506.848500,1810
1506.849000,1799
1506.849500,1794
1506.850000,1803
1506.850500,1809
1506.851000,1795
1506.851500,1819
1506.852000,1811
1506.852500,1802
1506.853000,1793
1506.853500,1807
1506.854000,1793
1506.854500,1790
1506.855000,1802
1506.855500,1810
1506.856000,1797
1506.856500,1802
1506.857000,1815
1506.857500,1804
1506.858000,1802
1506.858500,1818
1506.859000,1814
1506.859500,1804
1506.860000,1814
1506.860500,1818
1506.861000,1803
1506.861500,1799
1506.862000,1823
1506.862500,1814
1506.863000,1812
1506.863500,1824
1506.864000,1821
1506.864500,1806
1506.865000,1816
1506.865500,1822
1506.866000,1809
1506.866500,1801
1506.867000,1816
1506.867500,1808
1506.868000,1802
1506.868500,1811
1506.869000,1809
1506.869500,1783
1506.870000,1792
1506.870500,1801
1506.871000,1788
1506.871500,1785
1506.872000,1802
1506.872500,1794
1506.873000,1788
1506.873500,1801
1506.874000,1804
1506.874500,1789
1506.875000,1806
1506.875500,1808
1506.876000,1793
1506.876500,1790
1506.877000,1809
1506.877500,1800
1506.878000,1797
1506.878500,1817
1506.879000,1824
1506.879500,1815
1506.880000,1829
1506.880500,1834
1506.881000,1821
1506.881500,1816
1506.882000,1829
1506.882500,1821
1506.883000,1810
1506.883500,1821
1506.884000,1823
1506.884500,1803
1506.885000,1811
1506.885500,1813
1506.886000,1792
1506.886500,1776
1506.887000,1788
1506.887500,1785
1506.888000,1780
1506.888500,1799
1506.889000,1801
1506.889500,1786
1506.890000,1793
1506.890500,1799
1506.891000,1786
1506.891500,1782
1506.892000,1804
1506.892500,1804
1506.893000,1800
1506.893500,1809
1506.894000,1815
1506.894500,1802
1506.895000,1810
1506.895500,1813
1506.896000,1802
1506.896500,1798
1506.897000,1814
1506.897500,1809
1506.898000,1801
1506.898500,1811
1506.899000,1816
1506.899500,1800
1506.900000,1819
1506.900500,1812
1506.901000,1801
1506.901500,1795
1506.902000,1810
1506.902500,1804
1506.903000,1798
1506.903500,1810
1506.904000,1813
1506.904500,1801
1506.905000,1817
1506.905500,1814
1506.906000,1803
1506.906500,1798
1506.907000,1815
1506.907500,1804
1506.908000,1800
1506.908500,1812
1506.909000,1816
1506.909500,1805
1506.910000,1803
1506.910500,1820
1506.911000,1810
1506.911500,1805
1506.912000,1818
1506.912500,1824
1506.913000,1807
1506.913500,1816
1506.914000,1820
1506.914500,1806
1506.915000,1804
1506.915500,1818
1506.916000,1806
1506.916500,1795
1506.917000,1804
1506.917500,1808
1506.918000,1791
1506.918500,1805
1506.919000,1812
1506.919500,1798
1506.920000,1792
1506.920500,1811
1506.921000,1801
1506.921500,1792
1506.922000,1806
1506.922500,1813
1506.923000,1795
1506.923500,1809
1506.924000,1814
1506.924500,1801
1506.925000,1796
1506.925500,1812
1506.926000,1799
1506.926500,1794
1506.927000,1806
1506.927500,1810
1506.928000,1796
1506.928500,1810
1506.929000,1811
1506.929500,1799
1506.930000,1794
1506.930500,1812
1506.931000,1802
1506.931500,1798
1506.932000,1812
1506.932500,1817
1506.933000,1802
1506.933500,1811
1506.934000,1813
1506.934500,1803
1506.935000,1798
1506.935500,1818
1506.936000,1807
1506.936500,1803
1506.937000,1818
1506.937500,1828
1506.938000,1815
1506.938500,1828
1506.939000,1833
1506.939500,1823
1506.940000,1815
1506.940500,1828
1506.941000,1817
1506.941500,1805
1506.942000,1817
1506.942500,1823
1506.943000,1796
1506.943500,1798
1506.944000,1795
1506.944500,1780
1506.945000,1774
1506.945500,1791
1506.946000,1779
1506.946500,1775
1506.947000,1792
1506.947500,1800
1506.948000,1785
1506.948500,1799
1506.949000,1803
1506.949500,1793
1506.950000,1792
1506.950500,1811
1506.951000,1803
1506.951500,1800
1506.952000,1811
1506.952500,1818
1506.953000,1802
1506.953500,1821
1506.954000,1826
1506.954500,1812
1506.955000,1808
1506.955500,1822
1506.956000,1814
1506.956500,1807
1506.957000,1820
1506.957500,1827
1506.958000,1813
1506.958500,1821
1506.959000,1816
1506.959500,1803
1506.960000,1794
1506.960500,1804
1506.961000,1789
1506.961500,1783
1506.962000,1796
1506.962500,1803
1506.963000,1789
1506.963500,1794
1506.964000,1803
1506.964500,1794
1506.965000,1791
1506.965500,1809
1506.966000,1807
1506.966500,1799
1506.967000,1813
1506.967500,1822
1506.968000,1806
1506.968500,1820
1506.969000,1814
1506.969500,1803
1506.970000,1797
1506.970500,1813
1506.971000,1802
1506.971500,1800
1506.972000,1810
1506.972500,1820
1506.973000,1802
1506.973500,1797
1506.974000,1810
1506.974500,1800
1506.975000,1796
1506.975500,1812
1506.976000,1803
1506.976500,1799
1506.977000,1811
1506.977500,1822
1506.978000,1804
1506.978500,1798
1506.979000,1816
1506.979500,1805
1506.980000,1801
1506.980500,1813
1506.981000,1817
1506.981500,1799
1506.982000,1811
1506.982500,1816
1506.983000,1805
1506.983500,1798
1506.984000,1817
1506.984500,1808
1506.985000,1805
1506.985500,1819
1506.986000,1825
1506.986500,1812
1506.987000,1825
1506.987500,1835
1506.988000,1820
1506.988500,1816
1506.989000,1829
1506.989500,1820
1506.990000,1810
1506.990500,1816
1506.991000,1819
1506.991500,1798
1506.992000,1801
1506.992500,1807
1506.993000,1784
1506.993500,1774
1506.994000,1783
1506.994500,1776
1506.995000,1773
1506.995500,1786
1506.996000,1793
1506.996500,1782
1506.997000,1798
1506.997500,1808
1506.998000,1795
1506.998500,1794
1506.999000,1810
1506.999500,1807
1507.000000,1795
1507.000500,1810
1507.001000,1819
1507.001500,1803
1507.002000,1805
1507.002500,1817
1507.003000,1806
1507.003500,1799
1507.004000,1812
1507.004500,1805
1507.005000,1801
1507.005500,1816
1507.006000,1820
1507.006500,1807
1507.007000,1825
1507.007500,1821
1507.008000,1811
1507.008500,1805
1507.009000,1813
1507.009500,1806
1507.010000,1797
1507.010500,1808
1507.011000,1811
1507.011500,1795
1507.012000,1791
1507.012500,1809
1507.013000,1797
1507.013500,1791
1507.014000,1801
1507.014500,1807
1507.015000,1790
1507.015500,1801
1507.016000,1807
1507.016500,1794
1507.017000,1792
1507.017500,1809
1507.018000,1804
1507.018500,1798
1507.019000,1810
1507.019500,1814
1507.020000,1797
1507.020500,1810
1507.021000,1812
1507.021500,1800
1507.022000,1793
1507.022500,1816
1507.023000,1809
1507.023500,1806
1507.024000,1819
1507.024500,1831
1507.025000,1812
1507.025500,1825
1507.026000,1828
1507.026500,1810
1507.027000,1804
1507.027500,1824
1507.028000,1808
1507.028500,1802
1507.029000,1808
1507.029500,1810
1507.030000,1796
1507.030500,1803
1507.031000,1811
1507.031500,1795
1507.032000,1790
1507.032500,1808
1507.033000,1801
1507.033500,1794
1507.034000,1803
1507.034500,1808
1507.035000,1791
1507.035500,1797
1507.036000,1805
1507.036500,1796
1507.037000,1793
1507.037500,1811
1507.038000,1809
1507.038500,1805
1507.039000,1817
1507.039500,1821
1507.040000,1802
1507.040500,1813
1507.041000,1820
1507.041500,1804
1507.042000,1798
1507.042500,1816
1507.043000,1811
1507.043500,1802
1507.044000,1813
1507.044500,1816
1507.045000,1800
1507.045500,1810
1507.046000,1813
1507.046500,1801
1507.047000,1794
1507.047500,1811
1507.048000,1801
1507.048500,1795
1507.049000,1807
1507.049500,1810
1507.050000,1792
1507.050500,1805
1507.051000,1809
1507.051500,1803
1507.052000,1800
1507.052500,1817
1507.053000,1808
1507.053500,1802
1507.054000,1814
1507.054500,1818
1507.055000,1805
1507.055500,1810
1507.056000,1815
1507.056500,1803
1507.057000,1796
1507.057500,1813
1507.058000,1809
1507.058500,1799
1507.059000,1807
1507.059500,1807
1507.060000,1793
1507.060500,1810
1507.061000,1810
1507.061500,1801
1507.062000,1794
1507.062500,1808
1507.063000,1796
1507.063500,1796
1507.064000,1806
1507.064500,1811
1507.065000,1798
1507.065500,1809
1507.066000,1809
1507.066500,1800
1507.067000,1795
1507.067500,1815
1507.068000,1803
1507.068500,1799
1507.069000,1809
1507.069500,1813
1507.070000,1799
1507.070500,1795
1507.071000,1814
1507.071500,1803
1507.072000,1799
1507.072500,1819
1507.073000,1818
1507.073500,1800
1507.074000,1813
1507.074500,1819
1507.075000,1807
1507.075500,1802
1507.076000,1817
1507.076500,1809
1507.077000,1802
1507.077500,1819
1507.078000,1826
1507.078500,1809
1507.079000,1812
1507.079500,1814
1507.080000,1798
1507.080500,1794
1507.081000,1810
1507.081500,1800
1507.082000,1794
1507.082500,1808
1507.083000,1815
1507.083500,1797
1507.084000,1808
1507.084500,1812
1507.085000,1800
1507.085500,1796
1507.086000,1810
1507.086500,1803
1507.087000,1795
1507.087500,1810
1507.088000,1813
1507.088500,1798
1507.089000,1800
1507.089500,1808
1507.090000,1794
1507.090500,1789
1507.091000,1806
1507.091500,1798
1507.092000,1793
1507.092500,1808
1507.093000,1814
1507.093500,1796
1507.094000,1806
1507.094500,1814
1507.095000,1804
1507.095500,1798
1507.096000,1813
1507.096500,1808
1507.097000,1801
1507.097500,1818
1507.098000,1823
1507.098500,1806
1507.099000,1813
1507.099500,1821
1507.100000,1809
1507.100500,1801
1507.101000,1820
1507.101500,1812
1507.102000,1805
1507.102500,1814
1507.103000,1818
1507.103500,1803
1507.104000,1807
1507.104500,1816
1507.105000,1801
1507.105500,1798
1507.106000,1811
1507.106500,1805
1507.107000,1798
1507.107500,1816
1507.108000,1813
1507.108500,1794
1507.109000,1802
1507.109500,1808
1507.110000,1797
1507.110500,1792
1507.111000,1806
1507.111500,1799
1507.112000,1790
1507.112500,1801
1507.113000,1807
1507.113500,1789
1507.114000,1799
1507.114500,1807
1507.115000,1796
1507.115500,1793
1507.116000,1809
1507.116500,1801
1507.117000,1798
1507.117500,1818
1507.118000,1819
1507.118500,1804
1507.119000,1812
1507.119500,1814
1507.120000,1801
1507.120500,1796
1507.121000,1814
1507.121500,1802
1507.122000,1797
1507.122500,1812
1507.123000,1812
1507.123500,1798
1507.124000,1813
1507.124500,1819
1507.125000,1807
1507.125500,1801
1507.126000,1815
1507.126500,1809
1507.127000,1801
1507.127500,1819
1507.128000,1818
1507.128500,1801
1507.129000,1809
1507.129500,1814
1507.130000,1801
1507.130500,1798
1507.131000,1810
1507.131500,1803
1507.132000,1803
1507.132500,1822
1507.133000,1824
1507.133500,1811
1507.134000,1821
1507.134500,1823
1507.135000,1811
1507.135500,1807
1507.136000,1817
1507.136500,1807
1507.137000,1802
1507.137500,1811
1507.138000,1816
1507.138500,1796
1507.139000,1800
1507.139500,1803
1507.140000,1787
1507.140500,1783
1507.141000,1801
1507.141500,1795
1507.142000,1789
1507.142500,1806
1507.143000,1811
1507.143500,1796
1507.144000,1805
1507.144500,1809
1507.145000,1798
1507.145500,1795
1507.146000,1810
1507.146500,1805
1507.147000,1799
1507.147500,1818
1507.148000,1823
1507.148500,1808
1507.149000,1823
1507.149500,1832
1507.150000,1823
1507.150500,1818
1507.151000,1833
1507.151500,1823
1507.152000,1814
1507.152500,1830
1507.153000,1807
1507.153500,1803
1507.154000,1812
1507.154500,1811
1507.155000,1794
1507.155500,1815
1507.156000,1806
1507.156500,1791
1507.157000,1776
1507.157500,1788
1507.158000,1782
1507.158500,1783
1507.159000,1795
1507.159500,1802
1507.160000,1793
1507.160500,1809
1507.161000,1809
1507.161500,1794
1507.162000,1786
1507.162500,1806
1507.163000,1798
1507.163500,1795
1507.164000,1802
1507.164500,1809
1507.165000,1796
1507.165500,1818
1507.166000,1811
1507.166500,1801
1507.167000,1796
1507.167500,1813
1507.168000,1804
1507.168500,1798
1507.169000,1809
1507.169500,1814
1507.170000,1798
1507.170500,1823
1507.171000,1813
1507.171500,1800
1507.172000,1795
1507.172500,1813
1507.173000,1811
1507.173500,1810
1507.174000,1818
1507.174500,1821
1507.175000,1807
1507.175500,1829
1507.176000,1818
1507.176500,1810
1507.177000,1802
1507.177500,1819
1507.178000,1806
1507.178500,1799
1507.179000,1810
1507.179500,1815
1507.180000,1798
1507.180500,1812
1507.181000,1808
1507.181500,1796
1507.182000,1792
1507.182500,1813
1507.183000,1807
1507.183500,1798
1507.184000,1807
1507.184500,1812
1507.185000,1796
1507.185500,1796
1507.186000,1811
1507.186500,1798
1507.187000,1793
1507.187500,1812
1507.188000,1808
1507.188500,1801
1507.189000,1809
1507.189500,1817
1507.190000,1800
1507.190500,1812
1507.191000,1816
1507.191500,1806
1507.192000,1803
1507.192500,1818
1507.193000,1815
1507.193500,1807
1507.194000,1819
1507.194500,1820
1507.195000,1803
1507.195500,1814
1507.196000,1817
1507.196500,1805
1507.197000,1796
1507.197500,1812
1507.198000,1801
1507.198500,1795
1507.199000,1802
1507.199500,1807
1507.200000,1788
1507.200500,1799
1507.201000,1804
1507.201500,1798
1507.202000,1795
1507.202500,1820
1507.203000,1811
1507.203500,1806
1507.204000,1817
1507.204500,1822
1507.205000,1805
1507.205500,1813
1507.206000,1815
1507.206500,1801
1507.207000,1794
1507.207500,1812
1507.208000,1799
1507.208500,1787
1507.209000,1798
1507.209500,1803
1507.210000,1789
1507.210500,1806
1507.211000,1812
1507.211500,1802
1507.212000,1799
1507.212500,1818
1507.213000,1804
1507.213500,1801
1507.214000,1813
1507.214500,1799
1507.215000,1802
1507.215500,1815
1507.216000,1820
1507.216500,1804
1507.217000,1806
1507.217500,1809
1507.218000,1804
1507.218500,1800
1507.219000,1811
1507.219500,1799
1507.220000,1800
1507.220500,1813
1507.221000,1818
1507.221500,1799
1507.222000,1813
1507.222500,1815
1507.223000,1804
1507.223500,1800
1507.224000,1812
1507.224500,1796
1507.225000,1800
1507.225500,1808
1507.226000,1811
1507.226500,1795
1507.227000,1817
1507.227500,1806
1507.228000,1794
1507.228500,1789
1507.229000,1802
1507.229500,1792
1507.230000,1789
1507.230500,1801
1507.231000,1809
1507.231500,1795
1507.232000,1821
1507.232500,1818
1507.233000,1805
1507.233500,1802
1507.234000,1813
1507.234500,1808
1507.235000,1798
1507.235500,1810
1507.236000,1817
1507.236500,1801
1507.237000,1806
1507.237500,1816
1507.238000,1801
1507.238500,1798
1507.239000,1810
1507.239500,1804
1507.240000,1796
1507.240500,1808
1507.241000,1815
1507.241500,1800
1507.242000,1815
1507.242500,1812
1507.243000,1802
1507.243500,1796
1507.244000,1813
1507.244500,1795
1507.245000,1801
1507.245500,1812
1507.246000,1819
1507.246500,1805
1507.247000,1803
1507.247500,1816
1507.248000,1807
1507.248500,1803
1507.249000,1813
1507.249500,1813
1507.250000,1801
1507.250500,1812
1507.251000,1817
1507.251500,1804
1507.252000,1814
1507.252500,1821
1507.253000,1807
1507.253500,1803
1507.254000,1815
1507.254500,1801
1507.255000,1803
1507.255500,1813
1507.256000,1817
1507.256500,1801
1507.257000,1795
1507.257500,1809
1507.258000,1796
1507.258500,1790
1507.259000,1804
1507.259500,1793
1507.260000,1801
1507.260500,1817
1507.261000,1826
1507.261500,1814
1507.262000,1825
1507.262500,1829
1507.263000,1816
1507.263500,1812
1507.264000,1823
1507.264500,1808
1507.265000,1804
1507.265500,1814
1507.266000,1816
1507.266500,1796
1507.267000,1808
1507.267500,1804
1507.268000,1789
1507.268500,1782
1507.269000,1793
1507.269500,1789
1507.270000,1781
1507.270500,1793
1507.271000,1805
1507.271500,1791
1507.272000,1801
1507.272500,1815
1507.273000,1799
1507.273500,1796
1507.274000,1808
1507.274500,1801
1507.275000,1796
1507.275500,1807
1507.276000,1812
1507.276500,1797
1507.277000,1807
1507.277500,1818
1507.278000,1805
1507.278500,1800
1507.279000,1814
1507.279500,1806
1507.280000,1800
1507.280500,1812
1507.281000,1816
1507.281500,1802
1507.282000,1805
1507.282500,1824
1507.283000,1810
1507.283500,1808
1507.284000,1823
1507.284500,1813
1507.285000,1807
1507.285500,1819
1507.286000,1824
1507.286500,1808
1507.287000,1816
1507.287500,1822
1507.288000,1807
1507.288500,1799
1507.289000,1810
1507.289500,1800
1507.290000,1792
1507.290500,1802
1507.291000,1804
1507.291500,1788
1507.292000,1801
1507.292500,1808
1507.293000,1789
1507.293500,1787
1507.294000,1798
1507.294500,1792
1507.295000,1786
1507.295500,1802
1507.296000,1807
1507.296500,1793
1507.297000,1802
1507.297500,1811
1507.298000,1802
1507.298500,1800
1507.299000,1815
1507.299500,1807
1507.300000,1799
1507.300500,1813
1507.301000,1816
1507.301500,1803
1507.302000,1809
1507.302500,1819
1507.303000,1807
1507.303500,1801
1507.304000,1815
1507.304500,1806
1507.305000,1803
1507.305500,1817
1507.306000,1822
1507.306500,1806
1507.307000,1812
1507.307500,1818
1507.308000,1804
1507.308500,1799
1507.309000,1816
1507.309500,1808
1507.310000,1801
1507.310500,1815
1507.311000,1821
1507.311500,1804
1507.312000,1811
1507.312500,1817
1507.313000,1803
1507.313500,1796
1507.314000,1807
1507.314500,1800
1507.315000,1791
1507.315500,1804
1507.316000,1809
1507.316500,1789
1507.317000,1802
1507.317500,1815
1507.318000,1798
1507.318500,1793
1507.319000,1809
1507.319500,1799
1507.320000,1795
1507.320500,1808
1507.321000,1814
1507.321500,1799
1507.322000,1810
1507.322500,1818
1507.323000,1808
1507.323500,1802
1507.324000,1819
1507.324500,1809
1507.325000,1805
1507.325500,1817
1507.326000,1821
1507.326500,1806
1507.327000,1816
1507.327500,1821
1507.328000,1807
1507.328500,1799
1507.329000,1813
1507.329500,1801
1507.330000,1792
1507.330500,1805
1507.331000,1806
1507.331500,1796
1507.332000,1805
1507.332500,1812
1507.333000,1798
1507.333500,1792
1507.334000,1810
1507.334500,1801
1507.335000,1797
1507.335500,1812
1507.336000,1817
1507.336500,1801
1507.337000,1811
1507.337500,1815
1507.338000,1802
1507.338500,1798
1507.339000,1812
1507.339500,1802
1507.340000,1800
1507.340500,1810
1507.341000,1814
1507.341500,1796
1507.342000,1806
1507.342500,1810
1507.343000,1801
1507.343500,1791
1507.344000,1811
1507.344500,1803
1507.345000,1801
1507.345500,1815
1507.346000,1822
1507.346500,1806
1507.347000,1816
1507.347500,1823
1507.348000,1810
1507.348500,1804
1507.349000,1819
1507.349500,1809
1507.350000,1803
1507.350500,1816
1507.351000,1818
1507.351500,1799
1507.352000,1806
1507.352500,1815
1507.353000,1798
1507.353500,1791
1507.354000,1807
1507.354500,1799
1507.355000,1793
1507.355500,1809
1507.356000,1818
1507.356500,1805
1507.357000,1818
1507.357500,1825
1507.358000,1808
1507.358500,1806
1507.359000,1820
1507.359500,1810
1507.360000,1802
1507.360500,1812
1507.361000,1813
1507.361500,1793
1507.362000,1795
1507.362500,1803
1507.363000,1783
1507.363500,1777
1507.364000,1793
1507.364500,1789
1507.365000,1788
1507.365500,1799
1507.366000,1809
1507.366500,1792
1507.367000,1804
1507.367500,1812
1507.368000,1801
1507.368500,1797
1507.369000,1814
1507.369500,1805
1507.370000,1801
1507.370500,1813
1507.371000,1822
1507.371500,1803
1507.372000,1813
1507.372500,1819
1507.373000,1806
1507.373500,1800
1507.374000,1814
1507.374500,1801
1507.375000,1796
1507.375500,1807
1507.376000,1811
1507.376500,1796
1507.377000,1803
1507.377500,1812
1507.378000,1801
1507.378500,1794
1507.379000,1808
1507.379500,1802
1507.380000,1796
1507.380500,1809
1507.381000,1818
1507.381500,1798
1507.382000,1808
1507.382500,1820
1507.383000,1804
1507.383500,1800
1507.384000,1815
1507.384500,1809
1507.385000,1804
1507.385500,1818
1507.386000,1824
1507.386500,1809
1507.387000,1820
1507.387500,1824
1507.388000,1817
1507.388500,1818
1507.389000,1835
1507.389500,1829
1507.390000,1824
1507.390500,1832
1507.391000,1835
1507.391500,1811
1507.392000,1809
1507.392500,1819
1507.393000,1802
1507.393500,1795
1507.394000,1806
1507.394500,1794
1507.395000,1780
1507.395500,1784
1507.396000,1786
1507.396500,1771
1507.397000,1794
1507.397500,1787
1507.398000,1777
1507.398500,1775
1507.399000,1789
1507.399500,1782
1507.400000,1783
1507.400500,1800
1507.401000,1808
1507.401500,1797
1507.402000,1808
1507.402500,1814
1507.403000,1803
1507.403500,1801
1507.404000,1813
1507.404500,1798
1507.405000,1801
1507.405500,1813
1507.406000,1820
1507.406500,1806
1507.407000,1803
1507.407500,1820
1507.408000,1811
1507.408500,1805
1507.409000,1818
1507.409500,1802
1507.410000,1806
1507.410500,1816
1507.411000,1821
1507.411500,1807
1507.412000,1804
1507.412500,1817
1507.413000,1807
1507.413500,1799
1507.414000,1810
1507.414500,1800
1507.415000,1799
1507.415500,1809
1507.416000,1816
1507.416500,1800
1507.417000,1823
1507.417500,1817
1507.418000,1801
1507.418500,1794
1507.419000,1807
1507.419500,1793
1507.420000,1797
1507.420500,1810
1507.421000,1815
1507.421500,1804
1507.422000,1813
1507.422500,1813
1507.423000,1803
1507.423500,1797
1507.424000,1812
1507.424500,1799
1507.425000,1793
1507.425500,1802
1507.426000,1809
1507.426500,1792
1507.427000,1814
1507.427500,1808
1507.428000,1798
1507.428500,1792
1507.429000,1806
1507.429500,1801
1507.430000,1797
1507.430500,1809
1507.431000,1813
1507.431500,1804
1507.432000,1817
1507.432500,1823
1507.433000,1816
1507.433500,1810
1507.434000,1820
1507.434500,1814
1507.435000,1804
1507.435500,1816
1507.436000,1820
1507.436500,1803
1507.437000,1814
1507.437500,1817
1507.438000,1798
1507.438500,1787
1507.439000,1797
1507.439500,1789
1507.440000,1785
1507.440500,1799
1507.441000,1809
1507.441500,1794
1507.442000,1809
1507.442500,1813
1507.443000,1803
1507.443500,1800
1507.444000,1813
1507.444500,1809
1507.445000,1804
1507.445500,1816
1507.446000,1821
1507.446500,1805
1507.447000,1812
1507.447500,1823
1507.448000,1808
1507.448500,1803
1507.449000,1817
1507.449500,1811
1507.450000,1801
1507.450500,1812
1507.451000,1814
1507.451500,1796
1507.452000,1796
1507.452500,1815
1507.453000,1796
1507.453500,1790
1507.454000,1804
1507.454500,1796
1507.455000,1792
1507.455500,1807
1507.456000,1811
1507.456500,1796
1507.457000,1801
1507.457500,1809
1507.458000,1800
1507.458500,1798
1507.459000,1811
1507.459500,1805
1507.460000,1802
1507.460500,1813
1507.461000,1820
1507.461500,1805
1507.462000,1824
1507.462500,1815
1507.463000,1807
1507.463500,1801
1507.464000,1813
1507.464500,1800
1507.465000,1796
1507.465500,1809
1507.466000,1816
1507.466500,1799
1507.467000,1824
1507.467500,1813
1507.468000,1804
1507.468500,1797
1507.469000,1811
1507.469500,1801
1507.470000,1798
1507.470500,1813
1507.471000,1819
1507.471500,1809
1507.472000,1823
1507.472500,1825
1507.473000,1812
1507.473500,1807
1507.474000,1821
1507.474500,1806
1507.475000,1804
1507.475500,1812
1507.476000,1816
1507.476500,1799
1507.477000,1821
1507.477500,1809
1507.478000,1796
1507.478500,1789
1507.479000,1802
1507.479500,1796
1507.480000,1798
1507.480500,1808
1507.481000,1815
1507.481500,1801
1507.482000,1794
1507.482500,1818
1507.483000,1806
1507.483500,1801
1507.484000,1814
1507.484500,1798
1507.485000,1796
1507.485500,1806
1507.486000,1808
1507.486500,1789
1507.487000,1780
1507.487500,1802
1507.488000,1790
1507.488500,1792
1507.489000,1804
1507.489500,1810
1507.490000,1796
1507.490500,1808
1507.491000,1818
1507.491500,1803
1507.492000,1799
1507.492500,1823
1507.493000,1808
1507.493500,1805
1507.494000,1814
1507.494500,1821
1507.495000,1804
1507.495500,1817
1507.496000,1821
1507.496500,1806
1507.497000,1798
1507.497500,1817
1507.498000,1807
1507.498500,1803
1507.499000,1815
1507.499500,1817
1507.500000,1797
1507.500500,1805
1507.501000,1812
1507.501500,1800
1507.502000,1794
1507.502500,1815
1507.503000,1806
1507.503500,1799
1507.504000,1809
1507.504500,1811
1507.505000,1791
1507.505500,1800
1507.506000,1804
1507.506500,1791
1507.507000,1789
1507.507500,1810
1507.508000,1799
1507.508500,1793
1507.509000,1808
1507.509500,1812
1507.510000,1795
1507.510500,1805
1507.511000,1810
1507.511500,1796
1507.512000,1790
1507.512500,1815
1507.513000,1800
1507.513500,1797
1507.514000,1806
1507.514500,1811
1507.515000,1798
1507.515500,1813
1507.516000,1820
1507.516500,1806
1507.517000,1803
1507.517500,1824
1507.518000,1809
1507.518500,1805
1507.519000,1815
1507.519500,1817
1507.520000,1797
1507.520500,1812
1507.521000,1816
1507.521500,1804
1507.522000,1801
1507.522500,1815
1507.523000,1803
1507.523500,1797
1507.524000,1809
1507.524500,1815
1507.525000,1796
1507.525500,1809
1507.526000,1815
1507.526500,1801
1507.527000,1799
1507.527500,1817
1507.528000,1809
1507.528500,1801
1507.529000,1812
1507.529500,1816
1507.530000,1798
1507.530500,1810
1507.531000,1812
1507.531500,1798
1507.532000,1792
1507.532500,1811
1507.533000,1803
1507.533500,1798
1507.534000,1808
1507.534500,1816
1507.535000,1800
1507.535500,1805
1507.536000,1813
1507.536500,1800
1507.537000,1800
1507.537500,1816
1507.538000,1816
1507.538500,1809
1507.539000,1815
1507.539500,1817
1507.540000,1797
1507.540500,1807
1507.541000,1812
1507.541500,1801
1507.542000,1799
1507.542500,1811
1507.543000,1803
1507.543500,1796
1507.544000,1807
1507.544500,1816
1507.545000,1801
1507.545500,1811
1507.546000,1815
1507.546500,1806
1507.547000,1804
1507.547500,1818
1507.548000,1812
1507.548500,1804
1507.549000,1816
1507.549500,1816
1507.550000,1799
1507.550500,1809
1507.551000,1810
1507.551500,1794
1507.552000,1786
1507.552500,1803
1507.553000,1801
1507.553500,1794
1507.554000,1805
1507.554500,1808
1507.555000,1793
1507.555500,1796
1507.556000,1802
1507.556500,1793
1507.557000,1790
1507.557500,1808
1507.558000,1802
1507.558500,1797
1507.559000,1803
1507.559500,1811
1507.560000,1796
1507.560500,1820
1507.561000,1810
1507.561500,1798
1507.562000,1794
1507.562500,1813
1507.563000,1810
1507.563500,1807
1507.564000,1814
1507.564500,1820
1507.565000,1807
1507.565500,1804
1507.566000,1817
1507.566500,1809
1507.567000,1802
1507.567500,1819
1507.568000,1823
1507.568500,1802
1507.569000,1813
1507.569500,1815
1507.570000,1801
1507.570500,1792
1507.571000,1812
1507.571500,1804
1507.572000,1799
1507.572500,1816
1507.573000,1823
1507.573500,1803
1507.574000,1810
1507.574500,1816
1507.575000,1800
1507.575500,1792
1507.576000,1806
1507.576500,1797
1507.577000,1793
1507.577500,1812
1507.578000,1821
1507.578500,1807
1507.579000,1817
1507.579500,1821
1507.580000,1807
1507.580500,1801
1507.581000,1816
1507.581500,1806
1507.582000,1804
1507.582500,1816
1507.583000,1820
1507.583500,1799
1507.584000,1810
1507.584500,1813
1507.585000,1796
1507.585500,1790
1507.586000,1805
1507.586500,1801
1507.587000,1798
1507.587500,1814
1507.588000,1819
1507.588500,1803
1507.589000,1813
1507.589500,1814
1507.590000,1799
1507.590500,1793
1507.591000,1809
1507.591500,1800
1507.592000,1794
1507.592500,1807
1507.593000,1811
1507.593500,1793
1507.594000,1800
1507.594500,1803
1507.595000,1791
1507.595500,1783
1507.596000,1803
1507.596500,1792
1507.597000,1788
1507.597500,1802
1507.598000,1811
1507.598500,1798
1507.599000,1804
1507.599500,1811
1507.600000,1800
1507.600500,1798
1507.601000,1814
1507.601500,1807
1507.602000,1801
1507.602500,1821
1507.603000,1823
1507.603500,1808
1507.604000,1815
1507.604500,1821
1507.605000,1805
1507.605500,1801
1507.606000,1816
1507.606500,1809
1507.607000,1802
1507.607500,1818
1507.608000,1821
1507.608500,1804
1507.609000,1819
1507.609500,1822
1507.610000,1809
1507.610500,1802
1507.611000,1815
1507.611500,1808
1507.612000,1803
1507.612500,1818
1507.613000,1821
1507.613500,1806
1507.614000,1814
1507.614500,1819
1507.615000,1808
1507.615500,1802
1507.616000,1814
1507.616500,1806
1507.617000,1799
1507.617500,1816
1507.618000,1816
1507.618500,1799
1507.619000,1802
1507.619500,1806
1507.620000,1794
1507.620500,1789
1507.621000,1803
1507.621500,1791
1507.622000,1784
1507.622500,1797
1507.623000,1800
1507.623500,1783
1507.624000,1792
1507.624500,1799
1507.625000,1789
1507.625500,1786
1507.626000,1808
1507.626500,1802
1507.627000,1801
1507.627500,1814
1507.628000,1821
1507.628500,1804
1507.629000,1813
1507.629500,1817
1507.630000,1804
1507.630500,1800
1507.631000,1814
1507.631500,1803
1507.632000,1794
1507.632500,1808
1507.633000,1811
1507.633500,1798
1507.634000,1811
1507.634500,1813
1507.635000,1806
1507.635500,1800
1507.636000,1816
1507.636500,1813
1507.637000,1809
1507.637500,1825
1507.638000,1826
1507.638500,1809
1507.639000,1818
1507.639500,1822
1507.640000,1808
1507.640500,1802
1507.641000,1814
1507.641500,1800
1507.642000,1793
1507.642500,1805
1507.643000,1809
1507.643500,1793
1507.644000,1801
1507.644500,1806
1507.645000,1793
1507.645500,1787
1507.646000,1801
1507.646500,1796
1507.647000,1791
1507.647500,1807
1507.648000,1812
1507.648500,1798
1507.649000,1804
1507.649500,1812
1507.650000,1797
1507.650500,1796
1507.651000,1812
1507.651500,1806
1507.652000,1805
1507.652500,1817
1507.653000,1822
1507.653500,1806
1507.654000,1813
1507.654500,1820
1507.655000,1810
1507.655500,1806
1507.656000,1823
1507.656500,1815
1507.657000,1807
1507.657500,1825
1507.658000,1825
1507.658500,1805
1507.659000,1812
1507.659500,1815
1507.660000,1802
1507.660500,1794
1507.661000,1809
1507.661500,1797
1507.662000,1792
1507.662500,1802
1507.663000,1803
1507.663500,1784
1507.664000,1798
1507.664500,1805
1507.665000,1790
1507.665500,1786
1507.666000,1803
1507.666500,1794
1507.667000,1791
1507.667500,1812
1507.668000,1796
1507.668500,1799
1507.669000,1810
1507.669500,1814
1507.670000,1804
1507.670500,1813
1507.671000,1816
1507.671500,1804
1507.672000,1800
1507.672500,1820
1507.673000,1808
1507.673500,1805
1507.674000,1819
1507.674500,1828
1507.675000,1808
1507.675500,1825
1507.676000,1818
1507.676500,1808
1507.677000,1804
1507.677500,1819
1507.678000,1815
1507.678500,1808
1507.679000,1815
1507.679500,1818
1507.680000,1799
1507.680500,1807
1507.681000,1809
1507.681500,1796
1507.682000,1784
1507.682500,1802
1507.683000,1798
1507.683500,1794
1507.684000,1804
1507.684500,1811
1507.685000,1795
1507.685500,1802
1507.686000,1810
1507.686500,1794
1507.687000,1792
1507.687500,1813
1507.688000,1802
1507.688500,1798
1507.689000,1810
1507.689500,1818
1507.690000,1799
1507.690500,1811
1507.691000,1818
1507.691500,1805
1507.692000,1797
1507.692500,1815
1507.693000,1806
1507.693500,1799
1507.694000,1810
1507.694500,1815
1507.695000,1795
1507.695500,1806
1507.696000,1811
1507.696500,1799
1507.697000,1796
1507.697500,1808
1507.698000,1803
1507.698500,1797
1507.699000,1808
1507.699500,1815
1507.700000,1796
1507.700500,1809
1507.701000,1813
1507.701500,1801
1507.702000,1800
1507.702500,1819
1507.703000,1807
1507.703500,1805
1507.704000,1818
1507.704500,1811
1507.705000,1805
1507.705500,1815
1507.706000,1820
1507.706500,1806
1507.707000,1822
1507.707500,1822
1507.708000,1811
1507.708500,1801
1507.709000,1809
1507.709500,1796
1507.710000,1787
1507.710500,1798
1507.711000,1802
1507.711500,1790
1507.712000,1793
1507.712500,1809
1507.713000,1797
1507.713500,1792
1507.714000,1804
1507.714500,1799
1507.715000,1797
1507.715500,1812
1507.716000,1820
1507.716500,1806
1507.717000,1818
1507.717500,1820
1507.718000,1808
1507.718500,1801
1507.719000,1813
1507.719500,1805
1507.720000,1801
1507.720500,1811
1507.721000,1813
1507.721500,1796
1507.722000,1802
1507.722500,1810
1507.723000,1796
1507.723500,1792
1507.724000,1806
1507.724500,1799
1507.725000,1794
1507.725500,1808
1507.726000,1815
1507.726500,1801
1507.727000,1810
1507.727500,1819
1507.728000,1802
1507.728500,1799
1507.729000,1816
1507.729500,1807
1507.730000,1801
1507.730500,1815
1507.731000,1821
1507.731500,1801
1507.732000,1815
1507.732500,1821
1507.733000,1807
1507.733500,1804
1507.734000,1818
1507.734500,1809
1507.735000,1802
1507.735500,1814
1507.736000,1799
1507.736500,1796
1507.737000,1807
1507.737500,1819
1507.738000,1798
1507.738500,1812
1507.739000,1805
1507.739500,1791
1507.740000,1788
1507.740500,1806
1507.741000,1799
1507.741500,1794
1507.742000,1805
1507.742500,1816
1507.743000,1801
1507.743500,1820
1507.744000,1810
1507.744500,1801
1507.745000,1800
1507.745500,1817
1507.746000,1808
1507.746500,1803
1507.747000,1813
1507.747500,1822
1507.748000,1803
1507.748500,1802
1507.749000,1816
1507.749500,1804
1507.750000,1797
1507.750500,1815
1507.751000,1809
1507.751500,1808
1507.752000,1821
1507.752500,1831
1507.753000,1812
1507.753500,1825
1507.754000,1827
1507.754500,1817
1507.755000,1806
1507.755500,1821
1507.756000,1812
1507.756500,1801
1507.757000,1811
1507.757500,1812
1507.758000,1786
1507.758500,1790
1507.759000,1796
1507.759500,1781
1507.760000,1778
1507.760500,1798
1507.761000,1790
1507.761500,1788
1507.762000,1804
1507.762500,1818
1507.763000,1799
1507.763500,1809
1507.764000,1809
1507.764500,1796
1507.765000,1787
1507.765500,1804
1507.766000,1796
1507.766500,1789
1507.767000,1806
1507.767500,1815
1507.768000,1804
1507.768500,1817
1507.769000,1820
1507.769500,1809
1507.770000,1805
1507.770500,1822
1507.771000,1814
1507.771500,1804
1507.772000,1817
1507.772500,1827
1507.773000,1801
1507.773500,1815
1507.774000,1816
1507.774500,1800
1507.775000,1794
1507.775500,1810
1507.776000,1798
1507.776500,1791
1507.777000,1804
1507.777500,1785
1507.778000,1791
1507.778500,1805
1507.779000,1810
1507.779500,1797
1507.780000,1819
1507.780500,1813
1507.781000,1802
1507.781500,1798
1507.782000,1815
1507.782500,1812
1507.783000,1800
1507.783500,1812
1507.784000,1814
1507.784500,1798
1507.785000,1801
1507.785500,1811
1507.786000,1800
1507.786500,1798
1507.787000,1813
1507.787500,1814
1507.788000,1806
1507.788500,1820
1507.789000,1826
1507.789500,1811
1507.790000,1809
1507.790500,1823
1507.791000,1809
1507.791500,1807
1507.792000,1817
1507.792500,1809
1507.793000,1802
1507.793500,1811
1507.794000,1807
1507.794500,1789
1507.795000,1786
1507.795500,1799
1507.796000,1787
1507.796500,1781
1507.797000,1798
1507.797500,1797
1507.798000,1791
1507.798500,1805
1507.799000,1811
1507.799500,1798
1507.800000,1800
1507.800500,1817
1507.801000,1802
1507.801500,1801
1507.802000,1815
1507.802500,1812
1507.803000,1806
1507.803500,1820
1507.804000,1824
1507.804500,1808
1507.805000,1806
1507.805500,1814
1507.806000,1802
1507.806500,1798
1507.807000,1814
1507.807500,1811
1507.808000,1803
1507.808500,1818
1507.809000,1820
1507.809500,1804
1507.810000,1807
1507.810500,1814
1507.811000,1801
1507.811500,1797
1507.812000,1814
1507.812500,1804
1507.813000,1800
1507.813500,1811
1507.814000,1808
1507.814500,1792
1507.815000,1802
1507.815500,1803
1507.816000,1793
1507.816500,1784
1507.817000,1798
1507.817500,1794
1507.818000,1790
1507.818500,1808
1507.819000,1812
1507.819500,1794
1507.820000,1804
1507.820500,1813
1507.821000,1802
1507.821500,1797
1507.822000,1813
1507.822500,1807
1507.823000,1807
1507.823500,1820
1507.824000,1820
1507.824500,1808
1507.825000,1816
1507.825500,1822
1507.826000,1810
1507.826500,1805
1507.827000,1820
1507.827500,1811
1507.828000,1804
1507.828500,1814
1507.829000,1815
1507.829500,1798
1507.830000,1805
1507.830500,1807
1507.831000,1792
1507.831500,1789
1507.832000,1808
1507.832500,1798
1507.833000,1790
1507.833500,1805
1507.834000,1813
1507.834500,1795
1507.835000,1809
1507.835500,1813
1507.836000,1803
1507.836500,1800
1507.837000,1816
1507.837500,1811
1507.838000,1805
1507.838500,1817
1507.839000,1817
1507.839500,1795
1507.840000,1805
1507.840500,1814
1507.841000,1799
1507.841500,1798
1507.842000,1816
1507.842500,1806
1507.843000,1805
1507.843500,1825
1507.844000,1804
1507.844500,1804
1507.845000,1814
1507.845500,1817
1507.846000,1803
1507.846500,1822
1507.847000,1812
1507.847500,1802
1507.848000,1796
1507.848500,1809
1507.849000,1797
1507.849500,1793
1507.850000,1804
1507.850500,1805
1507.851000,1790
1507.851500,1805
1507.852000,1807
1507.852500,1803
1507.853000,1797
1507.853500,1812
1507.854000,1805
1507.854500,1801
1507.855000,1813
1507.855500,1820
1507.856000,1806
1507.856500,1823
1507.857000,1816
1507.857500,1805
1507.858000,1801
1507.858500,1818
1507.859000,1813
1507.859500,1805
1507.860000,1819
1507.860500,1828
1507.861000,1814
1507.861500,1817
1507.862000,1819
1507.862500,1809
1507.863000,1802
1507.863500,1812
1507.864000,1806
1507.864500,1796
1507.865000,1804
1507.865500,1808
1507.866000,1790
1507.866500,1798
1507.867000,1800
1507.867500,1789
1507.868000,1782
1507.868500,1798
1507.869000,1791
1507.869500,1783
1507.870000,1798
1507.870500,1807
1507.871000,1794
1507.871500,1810
1507.872000,1813
1507.872500,1801
1507.873000,1800
1507.873500,1815
1507.874000,1806
1507.874500,1801
1507.875000,1813
1507.875500,1818
1507.876000,1804
1507.876500,1811
1507.877000,1815
1507.877500,1808
1507.878000,1800
1507.878500,1815
1507.879000,1803
1507.879500,1796
1507.880000,1812
1507.880500,1819
1507.881000,1799
1507.881500,1810
1507.882000,1816
1507.882500,1804
1507.883000,1801
1507.883500,1818
1507.884000,1808
1507.884500,1802
1507.885000,1817
1507.885500,1805
1507.886000,1802
1507.886500,1812
1507.887000,1814
1507.887500,1802
1507.888000,1809
1507.888500,1810
1507.889000,1798
1507.889500,1792
1507.890000,1808
1507.890500,1803
1507.891000,1798
1507.891500,1809
1507.892000,1816
1507.892500,1803
1507.893000,1805
1507.893500,1822
1507.894000,1813
1507.894500,1807
1507.895000,1821
1507.895500,1813
1507.896000,1803
1507.896500,1810
1507.897000,1813
1507.897500,1798
1507.898000,1799
1507.898500,1809
1507.899000,1791
1507.899500,1785
1507.900000,1801
1507.900500,1793
1507.901000,1792
1507.901500,1809
1507.902000,1815
1507.902500,1803
1507.903000,1814
1507.903500,1814
1507.904000,1797
1507.904500,1794
1507.905000,1811
1507.905500,1803
1507.906000,1797
1507.906500,1809
1507.907000,1812
1507.907500,1800
1507.908000,1801
1507.908500,1807
1507.909000,1794
1507.909500,1792
1507.910000,1807
1507.910500,1796
1507.911000,1791
1507.911500,1807
1507.912000,1813
1507.912500,1804
1507.913000,1810
1507.913500,1815
1507.914000,1802
1507.914500,1797
1507.915000,1812
1507.915500,1804
1507.916000,1800
1507.916500,1812
1507.917000,1818
1507.917500,1800
1507.918000,1810
1507.918500,1817
1507.919000,1803
1507.919500,1807
1507.920000,1817
1507.920500,1806
1507.921000,1802
1507.921500,1815
1507.922000,1801
1507.922500,1805
1507.923000,1813
1507.923500,1818
1507.924000,1800
1507.924500,1822
1507.925000,1816
1507.925500,1804
1507.926000,1797
1507.926500,1810
1507.927000,1802
1507.927500,1796
1507.928000,1811
1507.928500,1815
1507.929000,1801
1507.929500,1803
1507.930000,1817
1507.930500,1808
1507.931000,1801
1507.931500,1815
1507.932000,1809
1507.932500,1802
1507.933000,1814
1507.933500,1816
1507.934000,1800
1507.934500,1806
1507.935000,1812
1507.935500,1800
1507.936000,1793
1507.936500,1810
1507.937000,1801
1507.937500,1793
1507.938000,1805
1507.938500,1813
1507.939000,1798
1507.939500,1810
1507.940000,1815
1507.940500,1802
1507.941000,1797
1507.941500,1813
1507.942000,1807
1507.942500,1805
1507.943000,1815
1507.943500,1820
1507.944000,1804
1507.944500,1814
1507.945000,1817
1507.945500,1805
1507.946000,1798
1507.946500,1814
1507.947000,1808
1507.947500,1806
1507.948000,1813
1507.948500,1816
1507.949000,1795
1507.949500,1799
1507.950000,1802
1507.950500,1791
1507.951000,1790
1507.951500,1809
1507.952000,1799
1507.952500,1792
1507.953000,1804
1507.953500,1813
1507.954000,1795
1507.954500,1807
1507.955000,1813
1507.955500,1802
1507.956000,1802
1507.956500,1816
1507.957000,1807
1507.957500,1802
1507.958000,1816
1507.958500,1820
1507.959000,1801
1507.959500,1812
1507.960000,1818
1507.960500,1810
1507.961000,1801
1507.961500,1815
1507.962000,1807
1507.962500,1799
1507.963000,1814
1507.963500,1817
1507.964000,1796
1507.964500,1804
1507.965000,1808
1507.965500,1791
1507.966000,1786
1507.966500,1805
1507.967000,1796
1507.967500,1789
1507.968000,1802
1507.968500,1808
1507.969000,1794
1507.969500,1810
1507.970000,1821
1507.970500,1811
1507.971000,1809
1507.971500,1824
1507.972000,1817
1507.972500,1814
1507.973000,1821
1507.973500,1827
1507.974000,1802
1507.974500,1814
1507.975000,1818
1507.975500,1799
1507.976000,1794
1507.976500,1808
1507.977000,1793
1507.977500,1783
1507.978000,1799
1507.978500,1785
1507.979000,1784
1507.979500,1796
1507.980000,1802
1507.980500,1790
1507.981000,1799
1507.981500,1803
1507.982000,1794
1507.982500,1793
1507.983000,1810
1507.983500,1803
1507.984000,1798
1507.984500,1812
1507.985000,1818
1507.985500,1799
1507.986000,1821
1507.986500,1816
1507.987000,1804
1507.987500,1802
1507.988000,1817
1507.988500,1811
1507.989000,1803
1507.989500,1815
1507.990000,1821
1507.990500,1806
1507.991000,1815
1507.991500,1820
1507.992000,1816
1507.992500,1808
1507.993000,1821
1507.993500,1813
1507.994000,1802
1507.994500,1807
1507.995000,1809
1507.995500,1790
1507.996000,1797
1507.996500,1802
1507.997000,1793
1507.997500,1795
1507.998000,1807
1507.998500,1803
1507.999000,1793
1507.999500,1805
1508.000000,1810
1508.000500,1798
1508.001000,1799
1508.001500,1813
1508.002000,1800
1508.002500,1797
1508.003000,1812
1508.003500,1809
1508.004000,1802
1508.004500,1812
1508.005000,1815
1508.005500,1802
1508.006000,1810
1508.006500,1819
1508.007000,1808
1508.007500,1806
1508.008000,1819
1508.008500,1810
1508.009000,1802
1508.009500,1814
1508.010000,1818
1508.010500,1804
1508.011000,1815
1508.011500,1816
1508.012000,1804
1508.012500,1797
1508.013000,1812
1508.013500,1806
1508.014000,1803
1508.014500,1816
1508.015000,1821
1508.015500,1802
1508.016000,1808
1508.016500,1813
1508.017000,1806
1508.017500,1806
1508.018000,1818
1508.018500,1808
1508.019000,1799
1508.019500,1812
1508.020000,1815
1508.020500,1797
1508.021000,1802
1508.021500,1810
1508.022000,1798
1508.022500,1798
1508.023000,1811
1508.023500,1800
1508.024000,1790
1508.024500,1803
1508.025000,1809
1508.025500,1790
1508.026000,1801
1508.026500,1806
1508.027000,1790
1508.027500,1788
1508.028000,1805
1508.028500,1799
1508.029000,1796
1508.029500,1810
1508.030000,1817
1508.030500,1801
1508.031000,1815
1508.031500,1820
1508.032000,1805
1508.032500,1802
1508.033000,1816
1508.033500,1805
1508.034000,1798
1508.034500,1808
1508.035000,1791
1508.035500,1790
1508.036000,1799
1508.036500,1806
1508.037000,1796
1508.037500,1813
1508.038000,1812
1508.038500,1803
1508.039000,1798
1508.039500,1816
1508.040000,1805
1508.040500,1804
1508.041000,1818
1508.041500,1822
1508.042000,1806
1508.042500,1820
1508.043000,1824
1508.043500,1813
1508.044000,1807
1508.044500,1817
1508.045000,1815
1508.045500,1806
1508.046000,1819
1508.046500,1826
1508.047000,1813
1508.047500,1815
1508.048000,1830
1508.048500,1819
1508.049000,1815
1508.049500,1829
1508.050000,1818
1508.050500,1806
1508.051000,1813
1508.051500,1813
1508.052000,1798
1508.052500,1803
1508.053000,1805
1508.053500,1785
1508.054000,1772
1508.054500,1783
1508.055000,1773
1508.055500,1766
1508.056000,1785
1508.056500,1794
1508.057000,1776
1508.057500,1793
1508.058000,1800
1508.058500,1789
1508.059000,1784
1508.059500,1802
1508.060000,1793
1508.060500,1791
1508.061000,1806
1508.061500,1812
1508.062000,1798
1508.062500,1808
1508.063000,1819
1508.063500,1808
1508.064000,1801
1508.064500,1819
1508.065000,1805
1508.065500,1799
1508.066000,1812
1508.066500,1820
1508.067000,1804
1508.067500,1814
1508.068000,1819
1508.068500,1806
1508.069000,1796
1508.069500,1815
1508.070000,1804
1508.070500,1803
1508.071000,1814
1508.071500,1820
1508.072000,1802
1508.072500,1813
1508.073000,1818
1508.073500,1804
1508.074000,1801
1508.074500,1819
1508.075000,1812
1508.075500,1807
1508.076000,1820
1508.076500,1827
1508.077000,1805
1508.077500,1818
1508.078000,1822
1508.078500,1810
1508.079000,1799
1508.079500,1814
1508.080000,1802
1508.080500,1793
1508.081000,1806
1508.081500,1792
1508.082000,1788
1508.082500,1805
1508.083000,1811
1508.083500,1796
1508.084000,1805
1508.084500,1807
1508.085000,1795
1508.085500,1791
1508.086000,1808
1508.086500,1802
1508.087000,1796
1508.087500,1812
1508.088000,1814
1508.088500,1801
1508.089000,1803
1508.089500,1815
1508.090000,1802
1508.090500,1801
1508.091000,1816
1508.091500,1808
1508.092000,1801
1508.092500,1816
1508.093000,1819
1508.093500,1805
1508.094000,1805
1508.094500,1818
1508.095000,1807
1508.095500,1805
1508.096000,1820
1508.096500,1816
1508.097000,1811
1508.097500,1823
1508.098000,1836
1508.098500,1820
1508.099000,1836
1508.099500,1826
1508.100000,1813
1508.100500,1807
1508.101000,1820
1508.101500,1809
1508.102000,1800
1508.102500,1809
1508.103000,1814
1508.103500,1795
1508.104000,1798
1508.104500,1793
1508.105000,1782
1508.105500,1774
1508.106000,1786
1508.106500,1768
1508.107000,1772
1508.107500,1790
1508.108000,1803
1508.108500,1795
1508.109000,1792
1508.109500,1812
1508.110000,1804
1508.110500,1806
1508.111000,1824
1508.111500,1828
1508.112000,1810
1508.112500,1818
1508.113000,1826
1508.113500,1811
1508.114000,1801
1508.114500,1815
1508.115000,1805
1508.115500,1796
1508.116000,1806
1508.116500,1808
1508.117000,1786
1508.117500,1799
1508.118000,1802
1508.118500,1786
1508.119000,1782
1508.119500,1803
1508.120000,1798
1508.120500,1792
1508.121000,1805
1508.121500,1810
1508.122000,1799
1508.122500,1814
1508.123000,1815
1508.123500,1806
1508.124000,1801
1508.124500,1816
1508.125000,1808
1508.125500,1800
1508.126000,1817
1508.126500,1821
1508.127000,1805
1508.127500,1810
1508.128000,1818
1508.128500,1805
1508.129000,1797
1508.129500,1811
1508.130000,1801
1508.130500,1793
1508.131000,1808
1508.131500,1814
1508.132000,1799
1508.132500,1808
1508.133000,1810
1508.133500,1798
1508.134000,1792
1508.134500,1809
1508.135000,1801
1508.135500,1795
1508.136000,1808
1508.136500,1815
1508.137000,1800
1508.137500,1813
1508.138000,1821
1508.138500,1807
1508.139000,1798
1508.139500,1814
1508.140000,1805
1508.140500,1801
1508.141000,1813
1508.141500,1816
1508.142000,1800
1508.142500,1811
1508.143000,1814
1508.143500,1802
1508.144000,1793
1508.144500,1814
1508.145000,1805
1508.145500,1800
1508.146000,1812
1508.146500,1815
1508.147000,1797
1508.147500,1806
1508.148000,1813
1508.148500,1800
1508.149000,1795
1508.149500,1813
1508.150000,1804
1508.150500,1799
1508.151000,1811
1508.151500,1813
1508.152000,1796
1508.152500,1809
1508.153000,1818
1508.153500,1806
1508.154000,1801
1508.154500,1816
1508.155000,1806
1508.155500,1802
1508.156000,1812
1508.156500,1817
1508.157000,1800
1508.157500,1813
1508.158000,1815
1508.158500,1802
1508.159000,1795
1508.159500,1812
1508.160000,1808
1508.160500,1804
1508.161000,1817
1508.161500,1821
1508.162000,1804
1508.162500,1819
1508.163000,1818
1508.163500,1806
1508.164000,1802
1508.164500,1819
1508.165000,1812
1508.165500,1802
1508.166000,1816
1508.166500,1818
1508.167000,1799
1508.167500,1811
1508.168000,1814
1508.168500,1799
1508.169000,1792
1508.169500,1804
1508.170000,1795
1508.170500,1787
1508.171000,1797
1508.171500,1806
1508.172000,1791
1508.172500,1812
1508.173000,1814
1508.173500,1800
1508.174000,1794
1508.174500,1809
1508.175000,1799
1508.175500,1791
1508.176000,1805
1508.176500,1809
1508.177000,1792
1508.177500,1810
1508.178000,1810
1508.178500,1795
1508.179000,1788
1508.179500,1807
1508.180000,1800
1508.180500,1796
1508.181000,1813
1508.181500,1820
1508.182000,1804
1508.182500,1817
1508.183000,1823
1508.183500,1812
1508.184000,1808
1508.184500,1826
1508.185000,1814
1508.185500,1805
1508.186000,1816
1508.186500,1822
1508.187000,1803
1508.187500,1812
1508.188000,1812
1508.188500,1800
1508.189000,1792
1508.189500,1811
1508.190000,1797
1508.190500,1787
1508.191000,1798
1508.191500,1800
1508.192000,1790
1508.192500,1802
1508.193000,1808
1508.193500,1796
1508.194000,1789
1508.194500,1806
1508.195000,1801
1508.195500,1796
1508.196000,1811
1508.196500,1816
1508.197000,1799
1508.197500,1809
1508.198000,1814
1508.198500,1803
1508.199000,1797
1508.199500,1812
1508.200000,1806
1508.200500,1801
1508.201000,1812
1508.201500,1819
1508.202000,1802
1508.202500,1813
1508.203000,1817
1508.203500,1807
1508.204000,1800
1508.204500,1814
1508.205000,1807
1508.205500,1801
1508.206000,1814
1508.206500,1820
1508.207000,1803
1508.207500,1814
1508.208000,1818
1508.208500,1804
1508.209000,1795
1508.209500,1811
1508.210000,1802
1508.210500,1798
1508.211000,1814
1508.211500,1820
1508.212000,1808
1508.212500,1818
1508.213000,1826
1508.213500,1813
1508.214000,1805
1508.214500,1821
1508.215000,1813
1508.215500,1807
1508.216000,1816
1508.216500,1818
1508.217000,1803
1508.217500,1800
1508.218000,1812
1508.218500,1799
1508.219000,1788
1508.219500,1808
1508.220000,1802
1508.220500,1795
1508.221000,1800
1508.221500,1800
1508.222000,1783
1508.222500,1813
1508.223000,1807
1508.223500,1798
1508.224000,1790
1508.224500,1808
1508.225000,1796
1508.225500,1791
1508.226000,1802
1508.226500,1809
1508.227000,1796
1508.227500,1807
1508.228000,1815
1508.228500,1804
1508.229000,1797
1508.229500,1812
1508.230000,1805
1508.230500,1800
1508.231000,1815
1508.231500,1821
1508.232000,1807
1508.232500,1823
1508.233000,1820
1508.233500,1810
1508.234000,1802
1508.234500,1817
1508.235000,1811
1508.235500,1804
1508.236000,1817
1508.236500,1821
1508.237000,1805
1508.237500,1817
1508.238000,1820
1508.238500,1803
1508.239000,1791
1508.239500,1804
1508.240000,1796
1508.240500,1792
1508.241000,1802
1508.241500,1809
1508.242000,1794
1508.242500,1796
1508.243000,1811
1508.243500,1802
1508.244000,1798
1508.244500,1812
1508.245000,1819
1508.245500,1798
1508.246000,1815
1508.246500,1822
1508.247000,1810
1508.247500,1802
1508.248000,1820
1508.248500,1810
1508.249000,1802
1508.249500,1815
1508.250000,1820
1508.250500,1799
1508.251000,1809
1508.251500,1809
1508.252000,1794
1508.252500,1787
1508.253000,1804
1508.253500,1797
1508.254000,1791
1508.254500,1806
1508.255000,1812
1508.255500,1799
1508.256000,1813
1508.256500,1817
1508.257000,1805
1508.257500,1806
1508.258000,1819
1508.258500,1809
1508.259000,1803
1508.259500,1817
1508.260000,1821
1508.260500,1803
1508.261000,1806
1508.261500,1810
1508.262000,1797
1508.262500,1797
1508.263000,1809
1508.263500,1802
1508.264000,1792
1508.264500,1803
1508.265000,1808
1508.265500,1794
1508.266000,1803
1508.266500,1813
1508.267000,1804
1508.267500,1808
1508.268000,1829
1508.268500,1820
1508.269000,1814
1508.269500,1826
1508.270000,1829
1508.270500,1809
1508.271000,1817
1508.271500,1820
1508.272000,1802
1508.272500,1791
1508.273000,1808
1508.273500,1795
1508.274000,1788
1508.274500,1796
1508.275000,1804
1508.275500,1786
1508.276000,1794
1508.276500,1798
1508.277000,1786
1508.277500,1786
1508.278000,1805
1508.278500,1797
1508.279000,1792
1508.279500,1806
1508.280000,1813
1508.280500,1794
1508.281000,1808
1508.281500,1809
1508.282000,1796
1508.282500,1793
1508.283000,1813
1508.283500,1805
1508.284000,1797
1508.284500,1814
1508.285000,1818
1508.285500,1802
1508.286000,1813
1508.286500,1820
1508.287000,1809
1508.287500,1817
1508.288000,1824
1508.288500,1812
1508.289000,1804
1508.289500,1820
1508.290000,1809
1508.290500,1804
1508.291000,1812
1508.291500,1813
1508.292000,1798
1508.292500,1799
1508.293000,1815
1508.293500,1800
1508.294000,1795
1508.294500,1811
1508.295000,1809
1508.295500,1806
1508.296000,1818
1508.296500,1822
1508.297000,1809
1508.297500,1828
1508.298000,1824
1508.298500,1813
1508.299000,1806
1508.299500,1819
1508.300000,1809
1508.300500,1798
1508.301000,1805
1508.301500,1804
1508.302000,1786
1508.302500,1793
1508.303000,1803
1508.303500,1790
1508.304000,1782
1508.304500,1797
1508.305000,1794
1508.305500,1786
1508.306000,1801
1508.306500,1804
1508.307000,1793
1508.307500,1810
1508.308000,1808
1508.308500,1800
1508.309000,1794
1508.309500,1809
1508.310000,1802
1508.310500,1793
1508.311000,1806
1508.311500,1812
1508.312000,1799
1508.312500,1804
1508.313000,1815
1508.313500,1807
1508.314000,1801
1508.314500,1817
1508.315000,1809
1508.315500,1806
1508.316000,1815
1508.316500,1819
1508.317000,1804
1508.317500,1818
1508.318000,1816
1508.318500,1804
1508.319000,1798
1508.319500,1812
1508.320000,1797
1508.320500,1795
1508.321000,1808
1508.321500,1812
1508.322000,1796
1508.322500,1814
1508.323000,1818
1508.323500,1806
1508.324000,1798
1508.324500,1816
1508.325000,1807
1508.325500,1811
1508.326000,1826
1508.326500,1833
1508.327000,1820
1508.327500,1818
1508.328000,1831
1508.328500,1821
1508.329000,1811
1508.329500,1824
1508.330000,1806
1508.330500,1798
1508.331000,1803
1508.331500,1802
1508.332000,1782
1508.332500,1803
1508.333000,1795
1508.333500,1789
1508.334000,1785
1508.334500,1799
1508.335000,1792
1508.335500,1785
1508.336000,1797
1508.336500,1804
1508.337000,1792
1508.337500,1817
1508.338000,1811
1508.338500,1804
1508.339000,1801
1508.339500,1816
1508.340000,1809
1508.340500,1805
1508.341000,1814
1508.341500,1820
1508.342000,1806
1508.342500,1828
1508.343000,1819
1508.343500,1804
1508.344000,1794
1508.344500,1810
1508.345000,1800
1508.345500,1798
1508.346000,1807
1508.346500,1814
1508.347000,1804
1508.347500,1818
1508.348000,1822
1508.348500,1810
1508.349000,1802
1508.349500,1817
1508.350000,1808
1508.350500,1804
1508.351000,1815
1508.351500,1819
1508.352000,1806
1508.352500,1822
1508.353000,1818
1508.353500,1807
1508.354000,1796
1508.354500,1810
1508.355000,1802
1508.355500,1798
1508.356000,1806
1508.356500,1811
1508.357000,1794
1508.357500,1816
1508.358000,1807
1508.358500,1792
1508.359000,1784
1508.359500,1798
1508.360000,1792
1508.360500,1788
1508.361000,1801
1508.361500,1807
1508.362000,1793
1508.362500,1799
1508.363000,1810
1508.363500,1798
1508.364000,1794
1508.364500,1812
1508.365000,1806
1508.365500,1801
1508.366000,1812
1508.366500,1817
1508.367000,1806
1508.367500,1807
1508.368000,1816
1508.368500,1806
1508.369000,1800
1508.369500,1813
1508.370000,1808
1508.370500,1800
1508.371000,1809
1508.371500,1814
1508.372000,1803
1508.372500,1812
1508.373000,1816
1508.373500,1805
1508.374000,1800
1508.374500,1812
1508.375000,1806
1508.375500,1798
1508.376000,1806
1508.376500,1813
1508.377000,1797
1508.377500,1816
1508.378000,1814
1508.378500,1804
1508.379000,1801
1508.379500,1824
1508.380000,1819
1508.380500,1811
1508.381000,1823
1508.381500,1825
1508.382000,1810
1508.382500,1808
1508.383000,1822
1508.383500,1810
1508.384000,1803
1508.384500,1817
1508.385000,1809
1508.385500,1801
1508.386000,1807
1508.386500,1805
1508.387000,1790
1508.387500,1804
1508.388000,1811
1508.388500,1800
1508.389000,1793
1508.389500,1805
1508.390000,1798
1508.390500,1791
1508.391000,1801
1508.391500,1803
1508.392000,1783
1508.392500,1789
1508.393000,1795
1508.393500,1783
1508.394000,1781
1508.394500,1804
1508.395000,1795
1508.395500,1790
1508.396000,1807
1508.396500,1814
1508.397000,1793
1508.397500,1812
1508.398000,1817
1508.398500,1806
1508.399000,1800
1508.399500,1818
1508.400000,1810
1508.400500,1804
1508.401000,1821
1508.401500,1806
1508.402000,1806
1508.402500,1820
1508.403000,1825
1508.403500,1809
1508.404000,1825
1508.404500,1820
1508.405000,1808
1508.405500,1801
1508.406000,1815
1508.406500,1810
1508.407000,1798
1508.407500,1812
1508.408000,1815
1508.408500,1799
1508.409000,1796
1508.409500,1810
1508.410000,1798
1508.410500,1790
1508.411000,1804
1508.411500,1794
1508.412000,1791
1508.412500,1805
1508.413000,1813
1508.413500,1798
1508.414000,1806
1508.414500,1809
1508.415000,1794
1508.415500,1790
1508.416000,1806
1508.416500,1802
1508.417000,1795
1508.417500,1811
1508.418000,1815
1508.418500,1800
1508.419000,1807
1508.419500,1812
1508.420000,1797
1508.420500,1794
1508.421000,1815
1508.421500,1808
1508.422000,1803
1508.422500,1824
1508.423000,1825
1508.423500,1806
1508.424000,1817
1508.424500,1824
1508.425000,1811
1508.425500,1805
1508.426000,1822
1508.426500,1815
1508.427000,1808
1508.427500,1821
1508.428000,1828
1508.428500,1809
1508.429000,1820
1508.429500,1823
1508.430000,1808
1508.430500,1800
1508.431000,1817
1508.431500,1803
1508.432000,1793
1508.432500,1803
1508.433000,1791
1508.433500,1788
1508.434000,1799
1508.434500,1804
1508.435000,1784
1508.435500,1788
1508.436000,1796
1508.436500,1788
1508.437000,1784
1508.437500,1802
1508.438000,1800
1508.438500,1794
1508.439000,1805
1508.439500,1814
1508.440000,1801
1508.440500,1802
1508.441000,1815
1508.441500,1801
1508.442000,1795
1508.442500,1810
1508.443000,1802
1508.443500,1796
1508.444000,1806
1508.444500,1811
1508.445000,1797
1508.445500,1807
1508.446000,1813
1508.446500,1804
1508.447000,1797
1508.447500,1815
1508.448000,1806
1508.448500,1798
1508.449000,1807
1508.449500,1813
1508.450000,1799
1508.450500,1806
1508.451000,1815
1508.451500,1803
1508.452000,1801
1508.452500,1829
1508.453000,1817
1508.453500,1812
1508.454000,1823
1508.454500,1827
1508.455000,1810
1508.455500,1815
1508.456000,1821
1508.456500,1803
1508.457000,1798
1508.457500,1811
1508.458000,1807
1508.458500,1798
1508.459000,1808
1508.459500,1808
1508.460000,1790
1508.460500,1798
1508.461000,1803
1508.461500,1789
1508.462000,1789
1508.462500,1809
1508.463000,1804
1508.463500,1798
1508.464000,1812
1508.464500,1816
1508.465000,1795
1508.465500,1807
1508.466000,1812
1508.466500,1799
1508.467000,1794
1508.467500,1816
1508.468000,1812
1508.468500,1804
1508.469000,1816
1508.469500,1816
1508.470000,1796
1508.470500,1808
1508.471000,1810
1508.471500,1800
1508.472000,1794
1508.472500,1815
1508.473000,1801
1508.473500,1796
1508.474000,1803
1508.474500,1807
1508.475000,1788
1508.475500,1799
1508.476000,1808
1508.476500,1800
1508.477000,1794
1508.477500,1815
1508.478000,1809
1508.478500,1804
1508.479000,1818
1508.479500,1823
1508.480000,1808
1508.480500,1817
1508.481000,1826
1508.481500,1810
1508.482000,1804
1508.482500,1821
1508.483000,1811
1508.483500,1801
1508.484000,1812
1508.484500,1815
1508.485000,1799
1508.485500,1807
1508.486000,1815
1508.486500,1804
1508.487000,1798
1508.487500,1822
1508.488000,1808
1508.488500,1802
1508.489000,1816
1508.489500,1821
1508.490000,1805
1508.490500,1815
1508.491000,1817
1508.491500,1804
1508.492000,1794
1508.492500,1812
1508.493000,1800
1508.493500,1796
1508.494000,1806
1508.494500,1808
1508.495000,1789
1508.495500,1797
1508.496000,1802
1508.496500,1789
1508.497000,1786
1508.497500,1804
1508.498000,1791
1508.498500,1786
1508.499000,1799
1508.499500,1786
1508.500000,1784
1508.500500,1799
1508.501000,1806
1508.501500,1794
1508.502000,1790
1508.502500,1813
1508.503000,1806
1508.503500,1803
1508.504000,1813
1508.504500,1801
1508.505000,1801
1508.505500,1812
1508.506000,1818
1508.506500,1803
1508.507000,1827
1508.507500,1825
1508.508000,1814
1508.508500,1808
1508.509000,1819
1508.509500,1811
1508.510000,1803
1508.510500,1814
1508.511000,1820
1508.511500,1803
1508.512000,1819
1508.512500,1818
1508.513000,1804
1508.513500,1801
1508.514000,1814
1508.514500,1805
1508.515000,1797
1508.515500,1806
1508.516000,1809
1508.516500,1792
1508.517000,1807
1508.517500,1811
1508.518000,1801
1508.518500,1796
1508.519000,1811
1508.519500,1806
1508.520000,1800
1508.520500,1811
1508.521000,1817
1508.521500,1804
1508.522000,1804
1508.522500,1816
1508.523000,1804
1508.523500,1804
1508.524000,1820
1508.524500,1817
1508.525000,1810
1508.525500,1820
1508.526000,1823
1508.526500,1807
1508.527000,1807
1508.527500,1820
1508.528000,1805
1508.528500,1800
1508.529000,1814
1508.529500,1801
1508.530000,1793
1508.530500,1799
1508.531000,1801
1508.531500,1786
1508.532000,1797
1508.532500,1807
1508.533000,1797
1508.533500,1795
1508.534000,1811
1508.534500,1803
1508.535000,1799
1508.535500,1814
1508.536000,1820
1508.536500,1804
1508.537000,1815
1508.537500,1819
1508.538000,1806
1508.538500,1800
1508.539000,1815
1508.539500,1807
1508.540000,1799
1508.540500,1808
1508.541000,1812
1508.541500,1795
1508.542000,1806
1508.542500,1812
1508.543000,1797
1508.543500,1795
1508.544000,1806
1508.544500,1803
1508.545000,1798
1508.545500,1810
1508.546000,1812
1508.546500,1795
1508.547000,1806
1508.547500,1814
1508.548000,1800
1508.548500,1797
1508.549000,1811
1508.549500,1806
1508.550000,1800
1508.550500,1806
1508.551000,1809
1508.551500,1796
1508.552000,1795
1508.552500,1809
1508.553000,1801
1508.553500,1798
1508.554000,1809
1508.554500,1802
1508.555000,1792
1508.555500,1805
1508.556000,1814
1508.556500,1803
1508.557000,1806
1508.557500,1822
1508.558000,1809
1508.558500,1802
1508.559000,1819
1508.559500,1810
1508.560000,1805
1508.560500,1815
1508.561000,1816
1508.561500,1802
1508.562000,1805
1508.562500,1818
1508.563000,1801
1508.563500,1794
1508.564000,1806
1508.564500,1800
1508.565000,1794
1508.565500,1809
1508.566000,1814
1508.566500,1798
1508.567000,1808
1508.567500,1814
1508.568000,1803
1508.568500,1800
1508.569000,1815
1508.569500,1808
1508.570000,1800
1508.570500,1814
1508.571000,1817
1508.571500,1801
1508.572000,1807
1508.572500,1819
1508.573000,1803
1508.573500,1797
1508.574000,1812
1508.574500,1803
1508.575000,1795
1508.575500,1805
1508.576000,1813
1508.576500,1796
1508.577000,1810
1508.577500,1818
1508.578000,1802
1508.578500,1799
1508.579000,1818
1508.579500,1812
1508.580000,1809
1508.580500,1824
1508.581000,1827
1508.581500,1807
1508.582000,1816
1508.582500,1818
1508.583000,1806
1508.583500,1802
1508.584000,1810
1508.584500,1801
1508.585000,1789
1508.585500,1799
1508.586000,1802
1508.586500,1781
1508.587000,1797
1508.587500,1807
1508.588000,1795
1508.588500,1791
1508.589000,1808
1508.589500,1798
1508.590000,1796
1508.590500,1808
1508.591000,1816
1508.591500,1798
1508.592000,1812
1508.592500,1815
1508.593000,1802
1508.593500,1798
1508.594000,1816
1508.594500,1805
1508.595000,1803
1508.595500,1818
1508.596000,1813
1508.596500,1809
1508.597000,1821
1508.597500,1825
1508.598000,1810
1508.598500,1821
1508.599000,1820
1508.599500,1806
1508.600000,1801
1508.600500,1813
1508.601000,1800
1508.601500,1797
1508.602000,1807
1508.602500,1814
1508.603000,1798
1508.603500,1819
1508.604000,1806
1508.604500,1796
1508.605000,1791
1508.605500,1804
1508.606000,1798
1508.606500,1787
1508.607000,1801
1508.607500,1808
1508.608000,1794
1508.608500,1795
1508.609000,1805
1508.609500,1796
1508.610000,1794
1508.610500,1812
1508.611000,1808
1508.611500,1804
1508.612000,1816
1508.612500,1824
1508.613000,1808
1508.613500,1818
1508.614000,1815
1508.614500,1801
1508.615000,1792
1508.615500,1808
1508.616000,1801
1508.616500,1793
1508.617000,1806
1508.617500,1811
1508.618000,1793
1508.618500,1806
1508.619000,1809
1508.619500,1798
1508.620000,1795
1508.620500,1811
1508.621000,1801
1508.621500,1799
1508.622000,1813
1508.622500,1818
1508.623000,1801
1508.623500,1813
1508.624000,1815
1508.624500,1802
1508.625000,1795
1508.625500,1814
1508.626000,1806
1508.626500,1801
1508.627000,1813
1508.627500,1818
1508.628000,1799
1508.628500,1815
1508.629000,1819
1508.629500,1808
1508.630000,1801
1508.630500,1818
1508.631000,1809
1508.631500,1802
1508.632000,1812
1508.632500,1819
1508.633000,1800
1508.633500,1809
1508.634000,1811
1508.634500,1796
1508.635000,1787
1508.635500,1803
1508.636000,1793
1508.636500,1788
1508.637000,1804
1508.637500,1814
1508.638000,1796
1508.638500,1810
1508.639000,1812
1508.639500,1801
1508.640000,1795
1508.640500,1814
1508.641000,1802
1508.641500,1796
1508.642000,1812
1508.642500,1823
1508.643000,1812
1508.643500,1824
1508.644000,1827
1508.644500,1816
1508.645000,1813
1508.645500,1829
1508.646000,1820
1508.646500,1814
1508.647000,1823
1508.647500,1830
1508.648000,1807
1508.648500,1815
1508.649000,1813
1508.649500,1796
1508.650000,1788
1508.650500,1803
1508.651000,1793
1508.651500,1785
1508.652000,1800
1508.652500,1811
1508.653000,1789
1508.653500,1801
1508.654000,1806
1508.654500,1794
1508.655000,1789
1508.655500,1803
1508.656000,1795
1508.656500,1792
1508.657000,1802
1508.657500,1804
1508.658000,1784
1508.658500,1795
1508.659000,1802
1508.659500,1792
1508.660000,1804
1508.660500,1807
1508.661000,1797
1508.661500,1794
1508.662000,1811
1508.662500,1815
1508.663000,1800
1508.663500,1812
1508.664000,1814
1508.664500,1802
1508.665000,1796
1508.665500,1816
1508.666000,1805
1508.666500,1801
1508.667000,1816
1508.667500,1806
1508.668000,1806
1508.668500,1815
1508.669000,1820
1508.669500,1809
1508.670000,1821
1508.670500,1818
1508.671000,1809
1508.671500,1801
1508.672000,1816
1508.672500,1805
1508.673000,1804
1508.673500,1818
1508.674000,1819
1508.674500,1803
1508.675000,1815
1508.675500,1813
1508.676000,1802
1508.676500,1797
1508.677000,1810
1508.677500,1798
1508.678000,1794
1508.678500,1804
1508.679000,1807
1508.679500,1795
1508.680000,1815
1508.680500,1811
1508.681000,1799
1508.681500,1793
1508.682000,1809
1508.682500,1805
1508.683000,1798
1508.683500,1812
1508.684000,1813
1508.684500,1799
1508.685000,1818
1508.685500,1808
1508.686000,1799
1508.686500,1797
1508.687000,1815
1508.687500,1810
1508.688000,1805
1508.688500,1815
1508.689000,1824
1508.689500,1810
1508.690000,1809
1508.690500,1824
1508.691000,1811
1508.691500,1806
1508.692000,1820
1508.692500,1813
1508.693000,1800
1508.693500,1808
1508.694000,1811
1508.694500,1795
1508.695000,1804
1508.695500,1804
1508.696000,1790
1508.696500,1782
1508.697000,1796
1508.697500,1789
1508.698000,1785
1508.698500,1799
1508.699000,1804
1508.699500,1789
1508.700000,1800
1508.700500,1806
1508.701000,1798
1508.701500,1790
1508.702000,1809
1508.702500,1802
1508.703000,1802
1508.703500,1816
1508.704000,1821
1508.704500,1805
1508.705000,1812
1508.705500,1820
1508.706000,1808
1508.706500,1801
1508.707000,1817
1508.707500,1810
1508.708000,1803
1508.708500,1819
1508.709000,1823
1508.709500,1802
1508.710000,1812
1508.710500,1812
1508.711000,1802
1508.711500,1797
1508.712000,1814
1508.712500,1805
1508.713000,1797
1508.713500,1811
1508.714000,1813
1508.714500,1797
1508.715000,1807
1508.715500,1811
1508.716000,1797
1508.716500,1794
1508.717000,1812
1508.717500,1805
1508.718000,1800
1508.718500,1814
1508.719000,1819
1508.719500,1801
1508.720000,1809
1508.720500,1812
1508.721000,1801
1508.721500,1794
1508.722000,1809
1508.722500,1803
1508.723000,1798
1508.723500,1812
1508.724000,1817
1508.724500,1804
1508.725000,1810
1508.725500,1816
1508.726000,1804
1508.726500,1798
1508.727000,1813
1508.727500,1810
1508.728000,1801
1508.728500,1813
1508.729000,1814
1508.729500,1798
1508.730000,1809
1508.730500,1816
1508.731000,1807
1508.731500,1800
1508.732000,1813
1508.732500,1811
1508.733000,1804
1508.733500,1817
1508.734000,1819
1508.734500,1802
1508.735000,1812
1508.735500,1816
1508.736000,1800
1508.736500,1791
1508.737000,1802
1508.737500,1798
1508.738000,1791
1508.738500,1803
1508.739000,1807
1508.739500,1789
1508.740000,1799
1508.740500,1803
1508.741000,1793
1508.741500,1792
1508.742000,1811
1508.742500,1806
1508.743000,1802
1508.743500,1817
1508.744000,1820
1508.744500,1802
1508.745000,1812
1508.745500,1817
1508.746000,1805
1508.746500,1798
1508.747000,1816
1508.747500,1805
1508.748000,1800
1508.748500,1813
1508.749000,1812
1508.749500,1794
1508.750000,1799
1508.750500,1808
1508.751000,1797
1508.751500,1796
1508.752000,1813
1508.752500,1810
1508.753000,1805
1508.753500,1817
1508.754000,1821
1508.754500,1806
1508.755000,1815
1508.755500,1820
1508.756000,1809
1508.756500,1805
1508.757000,1820
1508.757500,1812
1508.758000,1801
1508.758500,1815
1508.759000,1817
1508.759500,1799
1508.760000,1805
1508.760500,1810
1508.761000,1797
1508.761500,1789
1508.762000,1809
1508.762500,1803
1508.763000,1801
1508.763500,1813
1508.764000,1817
1508.764500,1798
1508.765000,1812
1508.765500,1814
1508.766000,1802
1508.766500,1798
1508.767000,1816
1508.767500,1809
1508.768000,1803
1508.768500,1816
1508.769000,1817
1508.769500,1796
1508.770000,1805
1508.770500,1811
1508.771000,1797
1508.771500,1793
1508.772000,1811
1508.772500,1800
1508.773000,1798
1508.773500,1811
1508.774000,1815
1508.774500,1795
1508.775000,1807
1508.775500,1811
1508.776000,1800
1508.776500,1794
1508.777000,1812
1508.777500,1807
1508.778000,1796
1508.778500,1806
1508.779000,1804
1508.779500,1795
1508.780000,1804
1508.780500,1808
1508.781000,1796
1508.781500,1793
1508.782000,1811
1508.782500,1804
1508.783000,1801
1508.783500,1813
1508.784000,1820
1508.784500,1800
1508.785000,1814
1508.785500,1817
1508.786000,1800
1508.786500,1795
1508.787000,1813
1508.787500,1807
1508.788000,1796
1508.788500,1810
1508.789000,1812
1508.789500,1793
1508.790000,1808
1508.790500,1814
1508.791000,1801
1508.791500,1800
1508.792000,1820
1508.792500,1816
1508.793000,1809
1508.793500,1820
1508.794000,1822
1508.794500,1800
1508.795000,1813
1508.795500,1816
1508.796000,1801
1508.796500,1793
1508.797000,1807
1508.797500,1801
1508.798000,1787
1508.798500,1799
1508.799000,1800
1508.799500,1785
1508.800000,1794
1508.800500,1802
1508.801000,1790
1508.801500,1786
1508.802000,1805
1508.802500,1801
1508.803000,1797
1508.803500,1813
1508.804000,1817
1508.804500,1801
1508.805000,1810
1508.805500,1818
1508.806000,1804
1508.806500,1800
1508.807000,1815
1508.807500,1809
1508.808000,1800
1508.808500,1815
1508.809000,1818
1508.809500,1802
1508.810000,1809
1508.810500,1813
1508.811000,1802
1508.811500,1797
1508.812000,1815
1508.812500,1805
1508.813000,1802
1508.813500,1815
1508.814000,1815
1508.814500,1800
1508.815000,1811
1508.815500,1814
1508.816000,1801
1508.816500,1798
1508.817000,1813
1508.817500,1807
1508.818000,1802
1508.818500,1822
1508.819000,1828
1508.819500,1808
1508.820000,1821
1508.820500,1826
1508.821000,1812
1508.821500,1807
1508.822000,1823
1508.822500,1811
1508.823000,1805
1508.823500,1815
1508.824000,1816
1508.824500,1795
1508.825000,1803
1508.825500,1807
1508.826000,1791
1508.826500,1787
1508.827000,1803
1508.827500,1801
1508.828000,1794
1508.828500,1814
1508.829000,1818
1508.829500,1801
1508.830000,1811
1508.830500,1816
1508.831000,1801
1508.831500,1794
1508.832000,1812
1508.832500,1802
1508.833000,1797
1508.833500,1810
1508.834000,1811
1508.834500,1790
1508.835000,1798
1508.835500,1806
1508.836000,1797
1508.836500,1795
1508.837000,1813
1508.837500,1806
1508.838000,1801
1508.838500,1815
1508.839000,1814
1508.839500,1794
1508.840000,1803
1508.840500,1808
1508.841000,1800
1508.841500,1796
1508.842000,1808
1508.842500,1796
1508.843000,1795
1508.843500,1808
1508.844000,1809
1508.844500,1795
1508.845000,1806
1508.845500,1812
1508.846000,1801
1508.846500,1796
1508.847000,1810
1508.847500,1806
1508.848000,1803
1508.848500,1817
1508.849000,1820
1508.849500,1806
1508.850000,1814
1508.850500,1821
1508.851000,1808
1508.851500,1804
1508.852000,1816
1508.852500,1809
1508.853000,1800
1508.853500,1810
1508.854000,1816
1508.854500,1795
1508.855000,1802
1508.855500,1810
1508.856000,1800
1508.856500,1797
1508.857000,1812
1508.857500,1809
1508.858000,1799
1508.858500,1809
1508.859000,1817
1508.859500,1801
1508.860000,1807
1508.860500,1810
1508.861000,1800
1508.861500,1794
1508.862000,1809
1508.862500,1798
1508.863000,1795
1508.863500,1809
1508.864000,1813
1508.864500,1801
1508.865000,1810
1508.865500,1819
1508.866000,1805
1508.866500,1798
1508.867000,1815
1508.867500,1805
1508.868000,1804
1508.868500,1814
1508.869000,1814
1508.869500,1799
1508.870000,1806
1508.870500,1810
1508.871000,1797
1508.871500,1794
1508.872000,1816
1508.872500,1812
1508.873000,1809
1508.873500,1826
1508.874000,1829
1508.874500,1813
1508.875000,1820
1508.875500,1826
1508.876000,1809
1508.876500,1806
1508.877000,1819
1508.877500,1810
1508.878000,1800
1508.878500,1810
1508.879000,1805
1508.879500,1778
1508.880000,1786
1508.880500,1792
1508.881000,1783
1508.881500,1778
1508.882000,1801
1508.882500,1793
1508.883000,1790
1508.883500,1806
1508.884000,1811
1508.884500,1797
1508.885000,1803
1508.885500,1809
1508.886000,1799
1508.886500,1795
1508.887000,1812
1508.887500,1807
1508.888000,1801
1508.888500,1814
1508.889000,1815
1508.889500,1800
1508.890000,1808
1508.890500,1813
1508.891000,1805
1508.891500,1800
1508.892000,1818
1508.892500,1812
1508.893000,1807
1508.893500,1820
1508.894000,1821
1508.894500,1803
1508.895000,1814
1508.895500,1819
1508.896000,1806
1508.896500,1799
1508.897000,1816
1508.897500,1806
1508.898000,1799
1508.898500,1809
1508.899000,1814
1508.899500,1795
1508.900000,1811
1508.900500,1818
1508.901000,1804
1508.901500,1802
1508.902000,1819
1508.902500,1813
1508.903000,1806
1508.903500,1816
1508.904000,1810
1508.904500,1800
1508.905000,1811
1508.905500,1815
1508.906000,1798
1508.906500,1789
1508.907000,1802
1508.907500,1791
1508.908000,1795
1508.908500,1808
1508.909000,1812
1508.909500,1795
1508.910000,1805
1508.910500,1815
1508.911000,1801
1508.911500,1796
1508.912000,1815
1508.912500,1805
1508.913000,1799
1508.913500,1813
1508.914000,1816
1508.914500,1794
1508.915000,1806
1508.915500,1809
1508.916000,1796
1508.916500,1788
1508.917000,1806
1508.917500,1798
1508.918000,1793
1508.918500,1809
1508.919000,1813
1508.919500,1793
1508.920000,1808
1508.920500,1815
1508.921000,1803
1508.921500,1801
1508.922000,1817
1508.922500,1808
1508.923000,1806
1508.923500,1823
1508.924000,1827
1508.924500,1809
1508.925000,1824
1508.925500,1826
1508.926000,1814
1508.926500,1808
1508.927000,1819
1508.927500,1806
1508.928000,1801
1508.928500,1812
1508.929000,1815
1508.929500,1793
1508.930000,1802
1508.930500,1804
1508.931000,1786
1508.931500,1800
1508.932000,1804
1508.932500,1797
1508.933000,1796
1508.933500,1806
1508.934000,1795
1508.934500,1792
1508.935000,1806
1508.935500,1812
1508.936000,1797
1508.936500,1814
1508.937000,1810
1508.937500,1806
1508.938000,1797
1508.938500,1809
1508.939000,1789
1508.939500,1796
1508.940000,1805
1508.940500,1812
1508.941000,1799
1508.941500,1805
1508.942000,1815
1508.942500,1803
1508.943000,1805
1508.943500,1820
1508.944000,1817
1508.944500,1805
1508.945000,1818
1508.945500,1824
1508.946000,1808
1508.946500,1802
1508.947000,1820
1508.947500,1810
1508.948000,1799
1508.948500,1811
1508.949000,1811
1508.949500,1794
1508.950000,1805
1508.950500,1811
1508.951000,1797
1508.951500,1790
1508.952000,1803
1508.952500,1794
1508.953000,1791
1508.953500,1810
1508.954000,1813
1508.954500,1798
1508.955000,1810
1508.955500,1818
1508.956000,1809
1508.956500,1803
1508.957000,1822
1508.957500,1812
1508.958000,1808
1508.958500,1821
1508.959000,1825
1508.959500,1810
1508.960000,1814
1508.960500,1817
1508.961000,1797
1508.961500,1789
1508.962000,1804
1508.962500,1792
1508.963000,1788
1508.963500,1802
1508.964000,1806
1508.964500,1788
1508.965000,1798
1508.965500,1802
1508.966000,1789
1508.966500,1790
1508.967000,1810
1508.967500,1808
1508.968000,1798
1508.968500,1811
1508.969000,1814
1508.969500,1797
1508.970000,1812
1508.970500,1818
1508.971000,1809
1508.971500,1804
1508.972000,1819
1508.972500,1813
1508.973000,1813
1508.973500,1824
1508.974000,1823
1508.974500,1802
1508.975000,1815
1508.975500,1819
1508.976000,1803
1508.976500,1796
1508.977000,1811
1508.977500,1801
1508.978000,1790
1508.978500,1803
1508.979000,1810
1508.979500,1793
1508.980000,1808
1508.980500,1817
1508.981000,1802
1508.981500,1795
1508.982000,1810
1508.982500,1804
1508.983000,1802
1508.983500,1814
1508.984000,1819
1508.984500,1801
1508.985000,1809
1508.985500,1809
1508.986000,1796
1508.986500,1795
1508.987000,1811
1508.987500,1804
1508.988000,1798
1508.988500,1812
1508.989000,1812
1508.989500,1801
1508.990000,1807
1508.990500,1814
1508.991000,1803
1508.991500,1800
1508.992000,1817
1508.992500,1809
1508.993000,1807
1508.993500,1823
1508.994000,1826
1508.994500,1807
1508.995000,1812
1508.995500,1817
1508.996000,1801
1508.996500,1797
1508.997000,1810
1508.997500,1801
1508.998000,1793
1508.998500,1805
1508.999000,1810
1508.999500,1792
1509.000000,1796
1509.000500,1804
1509.001000,1795
1509.001500,1789
1509.002000,1802
1509.002500,1801
1509.003000,1796
1509.003500,1812
1509.004000,1813
1509.004500,1800
1509.005000,1812
1509.005500,1816
1509.006000,1807
1509.006500,1805
1509.007000,1819
1509.007500,1809
1509.008000,1804
1509.008500,1815
1509.009000,1820
1509.009500,1804
1509.010000,1814
1509.010500,1816
1509.011000,1802
1509.011500,1798
1509.012000,1812
1509.012500,1811
1509.013000,1797
1509.013500,1810
1509.014000,1810
1509.014500,1796
1509.015000,1798
1509.015500,1814
1509.016000,1801
1509.016500,1796
1509.017000,1810
1509.017500,1808
1509.018000,1796
1509.018500,1811
1509.019000,1813
1509.019500,1803
1509.020000,1816
1509.020500,1818
1509.021000,1809
1509.021500,1804
1509.022000,1815
1509.022500,1806
1509.023000,1799
1509.023500,1812
1509.024000,1817
1509.024500,1803
1509.025000,1805
1509.025500,1812
1509.026000,1798
1509.026500,1791
1509.027000,1803
1509.027500,1812
1509.028000,1795
1509.028500,1810
1509.029000,1813
1509.029500,1796
1509.030000,1787
1509.030500,1806
1509.031000,1797
1509.031500,1797
1509.032000,1811
1509.032500,1819
1509.033000,1800
1509.033500,1812
1509.034000,1811
1509.034500,1796
1509.035000,1790
1509.035500,1811
1509.036000,1804
1509.036500,1797
1509.037000,1814
1509.037500,1820
1509.038000,1801
1509.038500,1805
1509.039000,1813
1509.039500,1800
1509.040000,1793
1509.040500,1813
1509.041000,1802
1509.041500,1798
1509.042000,1811
1509.042500,1817
1509.043000,1800
1509.043500,1818
1509.044000,1820
1509.044500,1808
1509.045000,1802
1509.045500,1817
1509.046000,1810
1509.046500,1804
1509.047000,1813
1509.047500,1816
1509.048000,1800
1509.048500,1809
1509.049000,1806
1509.049500,1795
1509.050000,1790
1509.050500,1804
1509.051000,1794
1509.051500,1792
1509.052000,1804
1509.052500,1813
1509.053000,1795
1509.053500,1804
1509.054000,1808
1509.054500,1797
1509.055000,1795
1509.055500,1810
1509.056000,1804
1509.056500,1798
1509.057000,1812
1509.057500,1817
1509.058000,1805
1509.058500,1805
1509.059000,1817
1509.059500,1805
1509.060000,1801
1509.060500,1817
1509.061000,1812
1509.061500,1807
1509.062000,1817
1509.062500,1822
1509.063000,1807
1509.063500,1829
1509.064000,1814
1509.064500,1803
1509.065000,1796
1509.065500,1810
1509.066000,1798
1509.066500,1796
1509.067000,1806
1509.067500,1811
1509.068000,1794
1509.068500,1808
1509.069000,1808
1509.069500,1798
1509.070000,1795
1509.070500,1811
1509.071000,1799
1509.071500,1795
1509.072000,1805
1509.072500,1812
1509.073000,1794
1509.073500,1808
1509.074000,1808
1509.074500,1801
1509.075000,1795
1509.075500,1810
1509.076000,1816
1509.076500,1799
1509.077000,1812
1509.077500,1825
1509.078000,1811
1509.078500,1808
1509.079000,1824
1509.079500,1810
1509.080000,1807
1509.080500,1816
1509.081000,1818
1509.081500,1799
1509.082000,1811
1509.082500,1814
1509.083000,1797
1509.083500,1789
1509.084000,1801
1509.084500,1792
1509.085000,1787
1509.085500,1799
1509.086000,1809
1509.086500,1794
1509.087000,1806
1509.087500,1812
1509.088000,1802
1509.088500,1803
1509.089000,1819
1509.089500,1812
1509.090000,1811
1509.090500,1824
1509.091000,1829
1509.091500,1812
1509.092000,1822
1509.092500,1827
1509.093000,1813
1509.093500,1802
1509.094000,1817
1509.094500,1804
1509.095000,1793
1509.095500,1804
1509.096000,1806
1509.096500,1791
1509.097000,1791
1509.097500,1805
1509.098000,1796
1509.098500,1793
1509.099000,1805
1509.099500,1800
1509.100000,1789
1509.100500,1801
1509.101000,1806
1509.101500,1794
1509.102000,1794
1509.102500,1809
1509.103000,1800
1509.103500,1795
1509.104000,1809
1509.104500,1801
1509.105000,1794
1509.105500,1806
1509.106000,1816
1509.106500,1804
1509.107000,1824
1509.107500,1823
1509.108000,1814
1509.108500,1810
1509.109000,1822
1509.109500,1805
1509.110000,1808
1509.110500,1817
1509.111000,1820
1509.111500,1804
1509.112000,1797
1509.112500,1811
1509.113000,1799
1509.113500,1797
1509.114000,1806
1509.114500,1812
1509.115000,1793
1509.115500,1803
1509.116000,1807
1509.116500,1791
1509.117000,1785
1509.117500,1804
1509.118000,1796
1509.118500,1793
1509.119000,1805
1509.119500,1809
1509.120000,1791
1509.120500,1803
1509.121000,1807
1509.121500,1796
1509.122000,1792
1509.122500,1818
1509.123000,1805
1509.123500,1802
1509.124000,1814
1509.124500,1810
1509.125000,1800
1509.125500,1811
1509.126000,1820
1509.126500,1805
1509.127000,1802
1509.127500,1824
1509.128000,1813
1509.128500,1811
1509.129000,1822
1509.129500,1828
1509.130000,1809
1509.130500,1819
1509.131000,1821
1509.131500,1807
1509.132000,1801
1509.132500,1816
1509.133000,1803
1509.133500,1795
1509.134000,1802
1509.134500,1804
1509.135000,1786
1509.135500,1804
1509.136000,1809
1509.136500,1797
1509.137000,1790
1509.137500,1812
1509.138000,1799
1509.138500,1794
1509.139000,1805
1509.139500,1809
1509.140000,1793
1509.140500,1805
1509.141000,1813
1509.141500,1802
1509.142000,1798
1509.142500,1820
1509.143000,1807
1509.143500,1807
1509.144000,1818
1509.144500,1819
1509.145000,1803
1509.145500,1810
1509.146000,1817
1509.146500,1803
1509.147000,1796
1509.147500,1813
1509.148000,1803
1509.148500,1796
1509.149000,1809
1509.149500,1803
1509.150000,1791
1509.150500,1805
1509.151000,1809
1509.151500,1797
1509.152000,1796
1509.152500,1817
1509.153000,1812
1509.153500,1813
1509.154000,1824
1509.154500,1830
1509.155000,1812
1509.155500,1821
1509.156000,1825
1509.156500,1808
1509.157000,1805
1509.157500,1821
1509.158000,1810
1509.158500,1800
1509.159000,1808
1509.159500,1809
1509.160000,1787
1509.160500,1796
1509.161000,1801
1509.161500,1787
1509.162000,1781
1509.162500,1802
1509.163000,1795
1509.163500,1791
1509.164000,1805
1509.164500,1810
1509.165000,1790
1509.165500,1805
1509.166000,1811
1509.166500,1796
1509.167000,1792
1509.167500,1810
1509.168000,1801
1509.168500,1796
1509.169000,1809
1509.169500,1817
1509.170000,1799
1509.170500,1809
1509.171000,1815
1509.171500,1805
1509.172000,1799
1509.172500,1823
1509.173000,1809
1509.173500,1801
1509.174000,1814
1509.174500,1821
1509.175000,1805
1509.175500,1822
1509.176000,1827
1509.176500,1814
1509.177000,1806
1509.177500,1822
1509.178000,1807
1509.178500,1801
1509.179000,1809
1509.179500,1815
1509.180000,1794
1509.180500,1805
1509.181000,1808
1509.181500,1791
1509.182000,1784
1509.182500,1798
1509.183000,1788
1509.183500,1786
1509.184000,1801
1509.184500,1804
1509.185000,1793
1509.185500,1799
1509.186000,1806
1509.186500,1795
1509.187000,1792
1509.187500,1809
1509.188000,1803
1509.188500,1795
1509.189000,1808
1509.189500,1815
1509.190000,1802
1509.190500,1809
1509.191000,1817
1509.191500,1804
1509.192000,1802
1509.192500,1817
1509.193000,1809
1509.193500,1803
1509.194000,1815
1509.194500,1820
1509.195000,1806
1509.195500,1811
1509.196000,1817
1509.196500,1802
1509.197000,1796
1509.197500,1813
1509.198000,1803
1509.198500,1797
1509.199000,1810
1509.199500,1815
1509.200000,1796
1509.200500,1805
1509.201000,1815
1509.201500,1801
1509.202000,1799
1509.202500,1817
1509.203000,1808
1509.203500,1807
1509.204000,1821
1509.204500,1825
1509.205000,1809
1509.205500,1821
1509.206000,1822
1509.206500,1810
1509.207000,1805
1509.207500,1816
1509.208000,1810
1509.208500,1799
1509.209000,1806
1509.209500,1810
1509.210000,1794
1509.210500,1805
1509.211000,1806
1509.211500,1795
1509.212000,1788
1509.212500,1808
1509.213000,1800
1509.213500,1794
1509.214000,1803
1509.214500,1810
1509.215000,1794
1509.215500,1815
1509.216000,1808
1509.216500,1798
1509.217000,1796
1509.217500,1814
1509.218000,1810
1509.218500,1809
1509.219000,1821
1509.219500,1827
1509.220000,1814
1509.220500,1806
1509.221000,1822
1509.221500,1810
1509.222000,1804
1509.222500,1814
1509.223000,1815
1509.223500,1794
1509.224000,1800
1509.224500,1806
1509.225000,1792
1509.225500,1787
1509.226000,1801
1509.226500,1794
1509.227000,1792
1509.227500,1811
1509.228000,1814
1509.228500,1801
1509.229000,1812
1509.229500,1821
1509.230000,1813
1509.230500,1814
1509.231000,1829
1509.231500,1821
1509.232000,1810
1509.232500,1825
1509.233000,1824
1509.233500,1804
1509.234000,1810
1509.234500,1810
1509.235000,1794
1509.235500,1782
1509.236000,1793
1509.236500,1784
1509.237000,1781
1509.237500,1798
1509.238000,1801
1509.238500,1787
1509.239000,1793
1509.239500,1803
1509.240000,1792
1509.240500,1790
1509.241000,1805
1509.241500,1802
1509.242000,1796
1509.242500,1813
1509.243000,1817
1509.243500,1802
1509.244000,1801
1509.244500,1814
1509.245000,1804
1509.245500,1799
1509.246000,1814
1509.246500,1807
1509.247000,1799
1509.247500,1810
1509.248000,1817
1509.248500,1806
1509.249000,1821
1509.249500,1815
1509.250000,1802
1509.250500,1798
1509.251000,1816
1509.251500,1805
1509.252000,1805
1509.252500,1818
1509.253000,1821
1509.253500,1811
1509.254000,1825
1509.254500,1825
1509.255000,1818
1509.255500,1810
1509.256000,1823
1509.256500,1810
1509.257000,1810
1509.257500,1826
1509.258000,1828
1509.258500,1813
1509.259000,1803
1509.259500,1816
1509.260000,1803
1509.260500,1794
1509.261000,1805
1509.261500,1796
1509.262000,1781
1509.262500,1793
1509.263000,1798
1509.263500,1784
1509.264000,1778
1509.264500,1795
1509.265000,1787
1509.265500,1785
1509.266000,1801
1509.266500,1810
1509.267000,1795
1509.267500,1811
1509.268000,1822
1509.268500,1809
1509.269000,1802
1509.269500,1821
1509.270000,1810
1509.270500,1805
1509.271000,1814
1509.271500,1822
1509.272000,1802
1509.272500,1814
1509.273000,1817
1509.273500,1800
1509.274000,1793
1509.274500,1809
1509.275000,1799
1509.275500,1795
1509.276000,1806
1509.276500,1799
1509.277000,1794
1509.277500,1808
1509.278000,1814
1509.278500,1803
1509.279000,1804
1509.279500,1816
1509.280000,1802
1509.280500,1796
1509.281000,1813
1509.281500,1806
1509.282000,1802
1509.282500,1813
1509.283000,1821
1509.283500,1807
1509.284000,1796
1509.284500,1812
1509.285000,1799
1509.285500,1794
1509.286000,1806
1509.286500,1808
1509.287000,1792
1509.287500,1807
1509.288000,1809
1509.288500,1796
1509.289000,1791
1509.289500,1809
1509.290000,1801
1509.290500,1797
1509.291000,1811
1509.291500,1814
1509.292000,1797
1509.292500,1812
1509.293000,1814
1509.293500,1806
1509.294000,1801
1509.294500,1820
1509.295000,1807
1509.295500,1804
1509.296000,1813
1509.296500,1817
1509.297000,1797
1509.297500,1810
1509.298000,1817
1509.298500,1803
1509.299000,1798
1509.299500,1815
1509.300000,1806
1509.300500,1800
1509.301000,1812
1509.301500,1816
1509.302000,1795
1509.302500,1814
1509.303000,1813
1509.303500,1800
1509.304000,1790
1509.304500,1808
1509.305000,1801
1509.305500,1792
1509.306000,1806
1509.306500,1811
1509.307000,1798
1509.307500,1809
1509.308000,1811
1509.308500,1800
1509.309000,1795
1509.309500,1811
1509.310000,1802
1509.310500,1801
1509.311000,1816
1509.311500,1822
1509.312000,1807
1509.312500,1819
1509.313000,1824
1509.313500,1810
1509.314000,1802
1509.314500,1818
1509.315000,1811
1509.315500,1808
1509.316000,1818
1509.316500,1820
1509.317000,1801
1509.317500,1812
1509.318000,1814
1509.318500,1801
1509.319000,1797
1509.319500,1813
1509.320000,1803
1509.320500,1797
1509.321000,1808
1509.321500,1813
1509.322000,1797
1509.322500,1809
1509.323000,1809
1509.323500,1793
1509.324000,1788
1509.324500,1802
1509.325000,1797
1509.325500,1794
1509.326000,1809
1509.326500,1816
1509.327000,1799
1509.327500,1815
1509.328000,1822
1509.328500,1809
1509.329000,1800
1509.329500,1813
1509.330000,1806
1509.330500,1803
1509.331000,1813
1509.331500,1820
1509.332000,1805
1509.332500,1812
1509.333000,1815
1509.333500,1799
1509.334000,1792
1509.334500,1808
1509.335000,1801
1509.335500,1797
1509.336000,1813
1509.336500,1818
1509.337000,1802
1509.337500,1813
1509.338000,1816
1509.338500,1800
1509.339000,1790
1509.339500,1808
1509.340000,1797
1509.340500,1792
1509.341000,1804
1509.341500,1809
1509.342000,1794
1509.342500,1807
1509.343000,1811
1509.343500,1800
1509.344000,1793
1509.344500,1809
1509.345000,1804
1509.345500,1797
1509.346000,1811
1509.346500,1812
1509.347000,1798
1509.347500,1801
1509.348000,1809
1509.348500,1799
1509.349000,1797
1509.349500,1816
1509.350000,1807
1509.350500,1801
1509.351000,1814
1509.351500,1820
1509.352000,1806
1509.352500,1818
1509.353000,1822
1509.353500,1810
1509.354000,1801
1509.354500,1818
1509.355000,1806
1509.355500,1802
1509.356000,1815
1509.356500,1816
1509.357000,1800
1509.357500,1804
1509.358000,1820
1509.358500,1812
1509.359000,1812
1509.359500,1826
1509.360000,1818
1509.360500,1809
1509.361000,1818
1509.361500,1819
1509.362000,1797
1509.362500,1799
1509.363000,1811
1509.363500,1798
1509.364000,1792
1509.364500,1802
1509.365000,1792
1509.365500,1780
1509.366000,1789
1509.366500,1797
1509.367000,1785
1509.367500,1798
1509.368000,1801
1509.368500,1788
1509.369000,1784
1509.369500,1804
1509.370000,1800
1509.370500,1798
1509.371000,1808
1509.371500,1813
1509.372000,1800
1509.372500,1811
1509.373000,1815
1509.373500,1802
1509.374000,1796
1509.374500,1810
1509.375000,1804
1509.375500,1800
1509.376000,1812
1509.376500,1819
1509.377000,1805
1509.377500,1818
1509.378000,1822
1509.378500,1810
1509.379000,1803
1509.379500,1819
1509.380000,1816
1509.380500,1807
1509.381000,1820
1509.381500,1825
1509.382000,1805
1509.382500,1812
1509.383000,1817
1509.383500,1803
1509.384000,1796
1509.384500,1812
1509.385000,1802
1509.385500,1795
1509.386000,1805
1509.386500,1810
1509.387000,1793
1509.387500,1807
1509.388000,1811
1509.388500,1800
1509.389000,1794
1509.389500,1811
1509.390000,1803
1509.390500,1795
1509.391000,1804
1509.391500,1809
1509.392000,1795
1509.392500,1797
1509.393000,1812
1509.393500,1802
1509.394000,1794
1509.394500,1810
1509.395000,1806
1509.395500,1800
1509.396000,1810
1509.396500,1815
1509.397000,1802
1509.397500,1809
1509.398000,1823
1509.398500,1812
1509.399000,1807
1509.399500,1823
1509.400000,1819
1509.400500,1810
1509.401000,1820
1509.401500,1826
1509.402000,1808
1509.402500,1806
1509.403000,1818
