# Subject: S01
# Trial: rep50b
# Notes: 
# Muscles: Ch1
# fs=2000 Hz, nch=1, vref=3.3 V
t_s,ch1_code
1547.817500,1812
1547.818000,1799
1547.818500,1795
1547.819000,1804
1547.819500,1806
1547.820000,1794
1547.820500,1806
1547.821000,1816
1547.821500,1800
1547.822000,1795
1547.822500,1816
1547.823000,1801
1547.823500,1799
1547.824000,1813
1547.824500,1819
1547.825000,1800
1547.825500,1810
1547.826000,1816
1547.826500,1801
1547.827000,1795
1547.827500,1819
1547.828000,1806
1547.828500,1799
1547.829000,1812
1547.829500,1811
1547.830000,1796
1547.830500,1809
1547.831000,1813
1547.831500,1800
1547.832000,1797
1547.832500,1817
1547.833000,1801
1547.833500,1798
1547.834000,1809
1547.834500,1816
1547.835000,1798
1547.835500,1807
1547.836000,1815
1547.836500,1799
1547.837000,1795
1547.837500,1811
1547.838000,1804
1547.838500,1800
1547.839000,1809
1547.839500,1814
1547.840000,1797
1547.840500,1808
1547.841000,1815
1547.841500,1799
1547.842000,1795
1547.842500,1817
1547.843000,1804
1547.843500,1798
1547.844000,1808
1547.844500,1815
1547.845000,1796
1547.845500,1809
1547.846000,1812
1547.846500,1799
1547.847000,1796
1547.847500,1811
1547.848000,1805
1547.848500,1798
1547.849000,1810
1547.849500,1815
1547.850000,1796
1547.850500,1810
1547.851000,1814
1547.851500,1801
1547.852000,1796
1547.852500,1815
1547.853000,1802
1547.853500,1803
1547.854000,1816
1547.854500,1821
1547.855000,1802
1547.855500,1813
1547.856000,1818
1547.856500,1805
1547.857000,1798
1547.857500,1819
1547.858000,1805
1547.858500,1796
1547.859000,1807
1547.859500,1789
1547.860000,1789
1547.860500,1804
1547.861000,1810
1547.861500,1797
1547.862000,1811
1547.862500,1816
1547.863000,1802
1547.863500,1798
1547.864000,1808
1547.864500,1802
1547.865000,1800
1547.865500,1813
1547.866000,1816
1547.866500,1800
1547.867000,1822
1547.867500,1814
1547.868000,1800
1547.868500,1795
1547.869000,1807
1547.869500,1801
1547.870000,1797
1547.870500,1809
1547.871000,1812
1547.871500,1799
1547.872000,1821
1547.872500,1813
1547.873000,1803
1547.873500,1798
1547.874000,1811
1547.874500,1800
1547.875000,1800
1547.875500,1808
1547.876000,1815
1547.876500,1801
1547.877000,1810
1547.877500,1821
1547.878000,1803
1547.878500,1797
1547.879000,1809
1547.879500,1801
1547.880000,1796
1547.880500,1806
1547.881000,1812
1547.881500,1801
1547.882000,1790
1547.882500,1814
1547.883000,1799
1547.883500,1795
1547.884000,1810
1547.884500,1795
1547.885000,1795
1547.885500,1812
1547.886000,1821
1547.886500,1808
1547.887000,1824
1547.887500,1819
1547.888000,1806
1547.888500,1800
1547.889000,1812
1547.889500,1807
1547.890000,1798
1547.890500,1810
1547.891000,1814
1547.891500,1800
1547.892000,1804
1547.892500,1813
1547.893000,1803
1547.893500,1797
1547.894000,1812
1547.894500,1802
1547.895000,1796
1547.895500,1808
1547.896000,1815
1547.896500,1800
1547.897000,1821
1547.897500,1814
1547.898000,1801
1547.898500,1798
1547.899000,1811
1547.899500,1804
1547.900000,1800
1547.900500,1809
1547.901000,1815
1547.901500,1800
1547.902000,1800
1547.902500,1818
1547.903000,1804
1547.903500,1801
1547.904000,1814
1547.904500,1805
1547.905000,1799
1547.905500,1806
1547.906000,1811
1547.906500,1798
1547.907000,1802
1547.907500,1813
1547.908000,1800
1547.908500,1795
1547.909000,1807
1547.909500,1803
1547.910000,1797
1547.910500,1809
1547.911000,1817
1547.911500,1806
1547.912000,1804
1547.912500,1817
1547.913000,1807
1547.913500,1803
1547.914000,1815
1547.914500,1809
1547.915000,1802
1547.915500,1808
1547.916000,1814
1547.916500,1795
1547.917000,1804
1547.917500,1810
1547.918000,1799
1547.918500,1793
1547.919000,1810
1547.919500,1805
1547.920000,1798
1547.920500,1810
1547.921000,1815
1547.921500,1800
1547.922000,1801
1547.922500,1814
1547.923000,1801
1547.923500,1794
1547.924000,1805
1547.924500,1803
1547.925000,1798
1547.925500,1810
1547.926000,1815
1547.926500,1800
1547.927000,1797
1547.927500,1814
1547.928000,1803
1547.928500,1798
1547.929000,1812
1547.929500,1806
1547.930000,1800
1547.930500,1810
1547.931000,1813
1547.931500,1801
1547.932000,1808
1547.932500,1816
1547.933000,1802
1547.933500,1797
1547.934000,1811
1547.934500,1804
1547.935000,1801
1547.935500,1808
1547.936000,1812
1547.936500,1800
1547.937000,1799
1547.937500,1812
1547.938000,1801
1547.938500,1798
1547.939000,1811
1547.939500,1807
1547.940000,1796
1547.940500,1806
1547.941000,1814
1547.941500,1800
1547.942000,1800
1547.942500,1816
1547.943000,1800
1547.943500,1794
1547.944000,1807
1547.944500,1802
1547.945000,1795
1547.945500,1804
1547.946000,1813
1547.946500,1803
1547.947000,1816
1547.947500,1822
1547.948000,1807
1547.948500,1797
1547.949000,1812
1547.949500,1806
1547.950000,1798
1547.950500,1810
1547.951000,1816
1547.951500,1800
1547.952000,1805
1547.952500,1815
1547.953000,1803
1547.953500,1797
1547.954000,1810
1547.954500,1805
1547.955000,1798
1547.955500,1809
1547.956000,1815
1547.956500,1799
1547.957000,1808
1547.957500,1813
1547.958000,1801
1547.958500,1797
1547.959000,1812
1547.959500,1804
1547.960000,1799
1547.960500,1811
1547.961000,1815
1547.961500,1799
1547.962000,1809
1547.962500,1819
1547.963000,1802
1547.963500,1797
1547.964000,1811
1547.964500,1802
1547.965000,1797
1547.965500,1807
1547.966000,1813
1547.966500,1799
1547.967000,1810
1547.967500,1817
1547.968000,1802
1547.968500,1797
1547.969000,1812
1547.969500,1804
1547.970000,1797
1547.970500,1811
1547.971000,1816
1547.971500,1803
1547.972000,1813
1547.972500,1813
1547.973000,1801
1547.973500,1799
1547.974000,1812
1547.974500,1802
1547.975000,1797
1547.975500,1810
1547.976000,1813
1547.976500,1798
1547.977000,1805
1547.977500,1816
1547.978000,1801
1547.978500,1795
1547.979000,1810
1547.979500,1805
1547.980000,1800
1547.980500,1812
1547.981000,1816
1547.981500,1800
1547.982000,1811
1547.982500,1815
1547.983000,1804
1547.983500,1803
1547.984000,1815
1547.984500,1809
1547.985000,1803
1547.985500,1814
1547.986000,1819
1547.986500,1803
1547.987000,1813
1547.987500,1816
1547.988000,1801
1547.988500,1793
1547.989000,1803
1547.989500,1794
1547.990000,1789
1547.990500,1804
1547.991000,1811
1547.991500,1797
1547.992000,1810
1547.992500,1817
1547.993000,1803
1547.993500,1799
1547.994000,1810
1547.994500,1803
1547.995000,1799
1547.995500,1811
1547.996000,1817
1547.996500,1801
1547.997000,1811
1547.997500,1817
1547.998000,1803
1547.998500,1800
1547.999000,1814
1547.999500,1806
1548.000000,1799
1548.000500,1812
1548.001000,1814
1548.001500,1796
1548.002000,1807
1548.002500,1815
1548.003000,1801
1548.003500,1798
1548.004000,1812
1548.004500,1805
1548.005000,1802
1548.005500,1810
1548.006000,1814
1548.006500,1798
1548.007000,1812
1548.007500,1817
1548.008000,1805
1548.008500,1796
1548.009000,1812
1548.009500,1803
1548.010000,1799
1548.010500,1810
1548.011000,1813
1548.011500,1797
1548.012000,1809
1548.012500,1812
1548.013000,1805
1548.013500,1800
1548.014000,1810
1548.014500,1803
1548.015000,1799
1548.015500,1808
1548.016000,1814
1548.016500,1798
1548.017000,1806
1548.017500,1814
1548.018000,1804
1548.018500,1799
1548.019000,1814
1548.019500,1805
1548.020000,1799
1548.020500,1810
1548.021000,1812
1548.021500,1797
1548.022000,1807
1548.022500,1812
1548.023000,1796
1548.023500,1791
1548.024000,1810
1548.024500,1803
1548.025000,1800
1548.025500,1811
1548.026000,1814
1548.026500,1802
1548.027000,1803
1548.027500,1817
1548.028000,1805
1548.028500,1802
1548.029000,1813
1548.029500,1805
1548.030000,1796
1548.030500,1812
1548.031000,1815
1548.031500,1799
1548.032000,1803
1548.032500,1815
1548.033000,1805
1548.033500,1801
1548.034000,1814
1548.034500,1805
1548.035000,1800
1548.035500,1809
1548.036000,1814
1548.036500,1798
1548.037000,1821
1548.037500,1816
1548.038000,1802
1548.038500,1798
1548.039000,1810
1548.039500,1804
1548.040000,1797
1548.040500,1810
1548.041000,1817
1548.041500,1803
1548.042000,1825
1548.042500,1819
1548.043000,1806
1548.043500,1800
1548.044000,1813
1548.044500,1798
1548.045000,1798
1548.045500,1807
1548.046000,1810
1548.046500,1791
1548.047000,1797
1548.047500,1812
1548.048000,1800
1548.048500,1795
1548.049000,1808
1548.049500,1797
1548.050000,1798
1548.050500,1809
1548.051000,1813
1548.051500,1800
1548.052000,1796
1548.052500,1812
1548.053000,1805
1548.053500,1799
1548.054000,1813
1548.054500,1815
1548.055000,1797
1548.055500,1808
1548.056000,1813
1548.056500,1803
1548.057000,1796
1548.057500,1816
1548.058000,1805
1548.058500,1798
1548.059000,1813
1548.059500,1815
1548.060000,1796
1548.060500,1809
1548.061000,1814
1548.061500,1806
1548.062000,1797
1548.062500,1819
1548.063000,1806
1548.063500,1799
1548.064000,1811
1548.064500,1813
1548.065000,1796
1548.065500,1807
1548.066000,1810
1548.066500,1803
1548.067000,1796
1548.067500,1816
1548.068000,1805
1548.068500,1800
1548.069000,1809
1548.069500,1815
1548.070000,1798
1548.070500,1812
1548.071000,1811
1548.071500,1802
1548.072000,1797
1548.072500,1818
1548.073000,1804
1548.073500,1799
1548.074000,1809
1548.074500,1813
1548.075000,1799
1548.075500,1798
1548.076000,1815
1548.076500,1802
1548.077000,1794
1548.077500,1813
1548.078000,1801
1548.078500,1797
1548.079000,1808
1548.079500,1814
1548.080000,1800
1548.080500,1811
1548.081000,1811
1548.081500,1802
1548.082000,1799
1548.082500,1816
1548.083000,1797
1548.083500,1802
1548.084000,1810
1548.084500,1816
1548.085000,1802
1548.085500,1794
1548.086000,1814
1548.086500,1802
1548.087000,1795
1548.087500,1809
1548.088000,1817
1548.088500,1799
1548.089000,1812
1548.089500,1816
1548.090000,1802
1548.090500,1797
1548.091000,1811
1548.091500,1802
1548.092000,1798
1548.092500,1807
1548.093000,1815
1548.093500,1795
1548.094000,1811
1548.094500,1815
1548.095000,1806
1548.095500,1799
1548.096000,1817
1548.096500,1806
1548.097000,1797
1548.097500,1815
1548.098000,1816
1548.098500,1799
1548.099000,1808
1548.099500,1812
1548.100000,1801
1548.100500,1792
1548.101000,1806
1548.101500,1799
1548.102000,1792
1548.102500,1807
1548.103000,1813
1548.103500,1801
1548.104000,1804
1548.104500,1815
1548.105000,1806
1548.105500,1805
1548.106000,1817
1548.106500,1813
1548.107000,1807
1548.107500,1818
1548.108000,1823
1548.108500,1806
1548.109000,1817
1548.109500,1811
1548.110000,1795
1548.110500,1789
1548.111000,1804
1548.111500,1800
1548.112000,1796
1548.112500,1806
1548.113000,1812
1548.113500,1797
1548.114000,1815
1548.114500,1808
1548.115000,1799
1548.115500,1793
1548.116000,1809
1548.116500,1796
1548.117000,1797
1548.117500,1809
1548.118000,1814
1548.118500,1803
1548.119000,1815
1548.119500,1812
1548.120000,1800
1548.120500,1797
1548.121000,1811
1548.121500,1798
1548.122000,1799
1548.122500,1811
1548.123000,1817
1548.123500,1804
1548.124000,1805
1548.124500,1814
1548.125000,1803
1548.125500,1798
1548.126000,1810
1548.126500,1806
1548.127000,1794
1548.127500,1808
1548.128000,1817
1548.128500,1804
1548.129000,1796
1548.129500,1812
1548.130000,1800
1548.130500,1796
1548.131000,1810
1548.131500,1802
1548.132000,1796
1548.132500,1808
1548.133000,1811
1548.133500,1799
1548.134000,1792
1548.134500,1811
1548.135000,1803
1548.135500,1797
1548.136000,1809
1548.136500,1817
1548.137000,1797
1548.137500,1815
1548.138000,1816
1548.138500,1802
1548.139000,1796
1548.139500,1811
1548.140000,1804
1548.140500,1800
1548.141000,1810
1548.141500,1818
1548.142000,1802
1548.142500,1816
1548.143000,1820
1548.143500,1805
1548.144000,1795
1548.144500,1814
1548.145000,1805
1548.145500,1801
1548.146000,1809
1548.146500,1818
1548.147000,1801
1548.147500,1804
1548.148000,1813
1548.148500,1803
1548.149000,1798
1548.149500,1814
1548.150000,1807
1548.150500,1801
1548.151000,1809
1548.151500,1818
1548.152000,1802
1548.152500,1806
1548.153000,1819
1548.153500,1805
1548.154000,1797
1548.154500,1809
1548.155000,1802
1548.155500,1796
1548.156000,1806
1548.156500,1811
1548.157000,1793
1548.157500,1794
1548.158000,1806
1548.158500,1795
1548.159000,1787
1548.159500,1805
1548.160000,1798
1548.160500,1794
1548.161000,1810
1548.161500,1816
1548.162000,1799
1548.162500,1821
1548.163000,1817
1548.163500,1802
1548.164000,1796
1548.164500,1811
1548.165000,1804
1548.165500,1800
1548.166000,1813
1548.166500,1822
1548.167000,1808
1548.167500,1809
1548.168000,1822
1548.168500,1813
1548.169000,1808
1548.169500,1821
1548.170000,1824
1548.170500,1800
1548.171000,1811
1548.171500,1813
1548.172000,1793
1548.172500,1789
1548.173000,1809
1548.173500,1802
1548.174000,1795
1548.174500,1809
1548.175000,1813
1548.175500,1796
1548.176000,1808
1548.176500,1811
1548.177000,1796
1548.177500,1798
1548.178000,1811
1548.178500,1801
1548.179000,1794
1548.179500,1806
1548.180000,1813
1548.180500,1798
1548.181000,1806
1548.181500,1814
1548.182000,1801
1548.182500,1801
1548.183000,1813
1548.183500,1804
1548.184000,1799
1548.184500,1811
1548.185000,1816
1548.185500,1800
1548.186000,1807
1548.186500,1813
1548.187000,1801
1548.187500,1803
1548.188000,1815
1548.188500,1808
1548.189000,1799
1548.189500,1813
1548.190000,1816
1548.190500,1803
1548.191000,1806
1548.191500,1822
1548.192000,1811
1548.192500,1809
1548.193000,1823
1548.193500,1814
1548.194000,1806
1548.194500,1816
1548.195000,1817
1548.195500,1801
1548.196000,1801
1548.196500,1812
1548.197000,1800
1548.197500,1799
1548.198000,1812
1548.198500,1804
1548.199000,1794
1548.199500,1802
1548.200000,1810
1548.200500,1790
1548.201000,1793
1548.201500,1803
1548.202000,1794
1548.202500,1791
1548.203000,1803
1548.203500,1798
1548.204000,1789
1548.204500,1802
1548.205000,1809
1548.205500,1792
1548.206000,1816
1548.206500,1807
1548.207000,1796
1548.207500,1791
1548.208000,1809
1548.208500,1794
1548.209000,1796
1548.209500,1806
1548.210000,1815
1548.210500,1800
1548.211000,1805
1548.211500,1814
1548.212000,1804
1548.212500,1805
1548.213000,1815
1548.213500,1821
1548.214000,1800
1548.214500,1813
1548.215000,1818
1548.215500,1807
1548.216000,1800
1548.216500,1816
1548.217000,1805
1548.217500,1804
1548.218000,1812
1548.218500,1819
1548.219000,1798
1548.219500,1813
1548.220000,1819
1548.220500,1806
1548.221000,1802
1548.221500,1820
1548.222000,1810
1548.222500,1811
1548.223000,1821
1548.223500,1823
1548.224000,1805
1548.224500,1817
1548.225000,1818
1548.225500,1806
1548.226000,1800
1548.226500,1816
1548.227000,1801
1548.227500,1799
1548.228000,1815
1548.228500,1817
1548.229000,1800
1548.229500,1801
1548.230000,1802
1548.230500,1787
1548.231000,1781
1548.231500,1795
1548.232000,1791
1548.232500,1784
1548.233000,1802
1548.233500,1811
1548.234000,1792
1548.234500,1806
1548.235000,1810
1548.235500,1802
1548.236000,1799
1548.236500,1819
1548.237000,1813
1548.237500,1810
1548.238000,1821
1548.238500,1828
1548.239000,1808
1548.239500,1816
1548.240000,1815
1548.240500,1801
1548.241000,1791
1548.241500,1809
1548.242000,1800
1548.242500,1798
1548.243000,1806
1548.243500,1811
1548.244000,1792
1548.244500,1802
1548.245000,1805
1548.245500,1794
1548.246000,1788
1548.246500,1804
1548.247000,1800
1548.247500,1791
1548.248000,1806
1548.248500,1811
1548.249000,1795
1548.249500,1806
1548.250000,1817
1548.250500,1807
1548.251000,1803
1548.251500,1818
1548.252000,1810
1548.252500,1806
1548.253000,1817
1548.253500,1822
1548.254000,1800
1548.254500,1802
1548.255000,1811
1548.255500,1800
1548.256000,1798
1548.256500,1813
1548.257000,1806
1548.257500,1801
1548.258000,1808
1548.258500,1815
1548.259000,1797
1548.259500,1808
1548.260000,1807
1548.260500,1795
1548.261000,1788
1548.261500,1802
1548.262000,1799
1548.262500,1797
1548.263000,1809
1548.263500,1815
1548.264000,1794
1548.264500,1807
1548.265000,1811
1548.265500,1803
1548.266000,1800
1548.266500,1817
1548.267000,1809
1548.267500,1816
1548.268000,1823
1548.268500,1828
1548.269000,1811
1548.269500,1823
1548.270000,1827
1548.270500,1813
1548.271000,1809
1548.271500,1825
1548.272000,1819
1548.272500,1813
1548.273000,1826
1548.273500,1829
1548.274000,1804
1548.274500,1815
1548.275000,1817
1548.275500,1803
1548.276000,1795
1548.276500,1811
1548.277000,1804
1548.277500,1797
1548.278000,1804
1548.278500,1805
1548.279000,1783
1548.279500,1788
1548.280000,1793
1548.280500,1785
1548.281000,1781
1548.281500,1794
1548.282000,1791
1548.282500,1786
1548.283000,1802
1548.283500,1808
1548.284000,1790
1548.284500,1803
1548.285000,1806
1548.285500,1798
1548.286000,1795
1548.286500,1809
1548.287000,1800
1548.287500,1795
1548.288000,1808
1548.288500,1814
1548.289000,1800
1548.289500,1809
1548.290000,1813
1548.290500,1802
1548.291000,1798
1548.291500,1812
1548.292000,1808
1548.292500,1800
1548.293000,1814
1548.293500,1820
1548.294000,1799
1548.294500,1800
1548.295000,1812
1548.295500,1800
1548.296000,1795
1548.296500,1812
1548.297000,1804
1548.297500,1798
1548.298000,1815
1548.298500,1814
1548.299000,1802
1548.299500,1819
1548.300000,1817
1548.300500,1805
1548.301000,1800
1548.301500,1813
1548.302000,1817
1548.302500,1801
1548.303000,1810
1548.303500,1817
1548.304000,1801
1548.304500,1796
1548.305000,1813
1548.305500,1804
1548.306000,1800
1548.306500,1815
1548.307000,1821
1548.307500,1807
1548.308000,1816
1548.308500,1820
1548.309000,1803
1548.309500,1799
1548.310000,1816
1548.310500,1807
1548.311000,1803
1548.311500,1818
1548.312000,1823
1548.312500,1809
1548.313000,1811
1548.313500,1819
1548.314000,1803
1548.314500,1797
1548.315000,1813
1548.315500,1804
1548.316000,1801
1548.316500,1811
1548.317000,1813
1548.317500,1796
1548.318000,1805
1548.318500,1806
1548.319000,1790
1548.319500,1785
1548.320000,1806
1548.320500,1805
1548.321000,1801
1548.321500,1814
1548.322000,1823
1548.322500,1817
1548.323000,1840
1548.323500,1840
1548.324000,1828
1548.324500,1820
1548.325000,1834
1548.325500,1820
1548.326000,1817
1548.326500,1824
1548.327000,1825
1548.327500,1810
1548.328000,1803
1548.328500,1816
1548.329000,1800
1548.329500,1788
1548.330000,1798
1548.330500,1800
1548.331000,1782
1548.331500,1795
1548.332000,1805
1548.332500,1796
1548.333000,1791
1548.333500,1809
1548.334000,1798
1548.334500,1790
1548.335000,1802
1548.335500,1805
1548.336000,1786
1548.336500,1800
1548.337000,1805
1548.337500,1792
1548.338000,1783
1548.338500,1797
1548.339000,1786
1548.339500,1781
1548.340000,1794
1548.340500,1801
1548.341000,1788
1548.341500,1794
1548.342000,1807
1548.342500,1801
1548.343000,1795
1548.343500,1813
1548.344000,1807
1548.344500,1802
1548.345000,1815
1548.345500,1820
1548.346000,1806
1548.346500,1824
1548.347000,1818
1548.347500,1813
1548.348000,1806
1548.348500,1824
1548.349000,1812
1548.349500,1809
1548.350000,1818
1548.350500,1821
1548.351000,1806
1548.351500,1816
1548.352000,1813
1548.352500,1806
1548.353000,1797
1548.353500,1812
1548.354000,1792
1548.354500,1797
1548.355000,1807
1548.355500,1811
1548.356000,1793
1548.356500,1802
1548.357000,1796
1548.357500,1785
1548.358000,1783
1548.358500,1800
1548.359000,1793
1548.359500,1789
1548.360000,1802
1548.360500,1811
1548.361000,1800
1548.361500,1796
1548.362000,1815
1548.362500,1810
1548.363000,1803
1548.363500,1820
1548.364000,1805
1548.364500,1805
1548.365000,1815
1548.365500,1818
1548.366000,1803
1548.366500,1801
1548.367000,1817
1548.367500,1810
1548.368000,1804
1548.368500,1815
1548.369000,1819
1548.369500,1802
1548.370000,1815
1548.370500,1817
1548.371000,1804
1548.371500,1798
1548.372000,1818
1548.372500,1816
1548.373000,1810
1548.373500,1825
1548.374000,1828
1548.374500,1810
1548.375000,1822
1548.375500,1821
1548.376000,1810
1548.376500,1799
1548.377000,1814
1548.377500,1807
1548.378000,1797
1548.378500,1818
1548.379000,1825
1548.379500,1812
1548.380000,1820
1548.380500,1822
1548.381000,1807
1548.381500,1799
1548.382000,1813
1548.382500,1799
1548.383000,1796
1548.383500,1809
1548.384000,1813
1548.384500,1790
1548.385000,1799
1548.385500,1799
1548.386000,1781
1548.386500,1776
1548.387000,1792
1548.387500,1783
1548.388000,1773
1548.388500,1786
1548.389000,1793
1548.389500,1779
1548.390000,1788
1548.390500,1797
1548.391000,1787
1548.391500,1788
1548.392000,1806
1548.392500,1801
1548.393000,1798
1548.393500,1810
1548.394000,1815
1548.394500,1802
1548.395000,1808
1548.395500,1822
1548.396000,1811
1548.396500,1806
1548.397000,1822
1548.397500,1811
1548.398000,1809
1548.398500,1824
1548.399000,1830
1548.399500,1818
1548.400000,1830
1548.400500,1827
1548.401000,1812
1548.401500,1805
1548.402000,1822
1548.402500,1813
1548.403000,1812
1548.403500,1822
1548.404000,1825
1548.404500,1807
1548.405000,1816
1548.405500,1811
1548.406000,1798
1548.406500,1789
1548.407000,1800
1548.407500,1790
1548.408000,1783
1548.408500,1798
1548.409000,1799
1548.409500,1786
1548.410000,1800
1548.410500,1801
1548.411000,1792
1548.411500,1789
1548.412000,1807
1548.412500,1804
1548.413000,1796
1548.413500,1803
1548.414000,1806
1548.414500,1787
1548.415000,1782
1548.415500,1802
1548.416000,1795
1548.416500,1790
1548.417000,1808
1548.417500,1821
1548.418000,1802
1548.418500,1812
1548.419000,1818
1548.419500,1809
1548.420000,1812
1548.420500,1841
1548.421000,1841
1548.421500,1841
1548.422000,1854
1548.422500,1862
1548.423000,1837
1548.423500,1845
1548.424000,1844
1548.424500,1828
1548.425000,1818
1548.425500,1831
1548.426000,1817
1548.426500,1807
1548.427000,1810
1548.427500,1810
1548.428000,1780
1548.428500,1777
1548.429000,1774
1548.429500,1762
1548.430000,1761
1548.430500,1783
1548.431000,1776
1548.431500,1772
1548.432000,1787
1548.432500,1796
1548.433000,1783
1548.433500,1791
1548.434000,1797
1548.434500,1786
1548.435000,1785
1548.435500,1804
1548.436000,1794
1548.436500,1789
1548.437000,1803
1548.437500,1816
1548.438000,1804
1548.438500,1813
1548.439000,1817
1548.439500,1803
1548.440000,1799
1548.440500,1814
1548.441000,1804
1548.441500,1796
1548.442000,1808
1548.442500,1819
1548.443000,1802
1548.443500,1811
1548.444000,1812
1548.444500,1799
1548.445000,1797
1548.445500,1818
1548.446000,1811
1548.446500,1805
1548.447000,1818
1548.447500,1824
1548.448000,1806
1548.448500,1815
1548.449000,1817
1548.449500,1809
1548.450000,1809
1548.450500,1829
1548.451000,1822
1548.451500,1813
1548.452000,1822
1548.452500,1828
1548.453000,1805
1548.453500,1814
1548.454000,1815
1548.454500,1802
1548.455000,1795
1548.455500,1816
1548.456000,1813
1548.456500,1807
1548.457000,1820
1548.457500,1825
1548.458000,1803
1548.458500,1814
1548.459000,1817
1548.459500,1803
1548.460000,1798
1548.460500,1811
1548.461000,1797
1548.461500,1786
1548.462000,1795
1548.462500,1797
1548.463000,1779
1548.463500,1787
1548.464000,1789
1548.464500,1780
1548.465000,1779
1548.465500,1798
1548.466000,1793
1548.466500,1789
1548.467000,1808
1548.467500,1817
1548.468000,1810
1548.468500,1826
1548.469000,1832
1548.469500,1823
1548.470000,1819
1548.470500,1835
1548.471000,1827
1548.471500,1820
1548.472000,1829
1548.472500,1834
1548.473000,1816
1548.473500,1820
1548.474000,1822
1548.474500,1804
1548.475000,1791
1548.475500,1791
1548.476000,1777
1548.476500,1765
1548.477000,1780
1548.477500,1793
1548.478000,1778
1548.478500,1786
1548.479000,1794
1548.479500,1785
1548.480000,1781
1548.480500,1800
1548.481000,1795
1548.481500,1791
1548.482000,1808
1548.482500,1818
1548.483000,1801
1548.483500,1810
1548.484000,1815
1548.484500,1807
1548.485000,1805
1548.485500,1824
1548.486000,1823
1548.486500,1825
1548.487000,1847
1548.487500,1854
1548.488000,1838
1548.488500,1849
1548.489000,1852
1548.489500,1834
1548.490000,1826
1548.490500,1837
1548.491000,1822
1548.491500,1813
1548.492000,1817
1548.492500,1814
1548.493000,1790
1548.493500,1789
1548.494000,1786
1548.494500,1765
1548.495000,1756
1548.495500,1769
1548.496000,1761
1548.496500,1759
1548.497000,1782
1548.497500,1791
1548.498000,1780
1548.498500,1789
1548.499000,1794
1548.499500,1784
1548.500000,1780
1548.500500,1800
1548.501000,1793
1548.501500,1792
1548.502000,1806
1548.502500,1815
1548.503000,1796
1548.503500,1810
1548.504000,1814
1548.504500,1806
1548.505000,1801
1548.505500,1816
1548.506000,1813
1548.506500,1804
1548.507000,1817
1548.507500,1825
1548.508000,1808
1548.508500,1819
1548.509000,1822
1548.509500,1811
1548.510000,1807
1548.510500,1822
1548.511000,1813
1548.511500,1803
1548.512000,1814
1548.512500,1818
1548.513000,1806
1548.513500,1816
1548.514000,1813
1548.514500,1802
1548.515000,1793
1548.515500,1808
1548.516000,1800
1548.516500,1793
1548.517000,1806
1548.517500,1812
1548.518000,1794
1548.518500,1797
1548.519000,1808
1548.519500,1793
1548.520000,1786
1548.520500,1802
1548.521000,1795
1548.521500,1788
1548.522000,1801
1548.522500,1810
1548.523000,1796
1548.523500,1797
1548.524000,1811
1548.524500,1801
1548.525000,1799
1548.525500,1816
1548.526000,1811
1548.526500,1808
1548.527000,1822
1548.527500,1825
1548.528000,1815
1548.528500,1821
1548.529000,1824
1548.529500,1809
1548.530000,1802
1548.530500,1816
1548.531000,1809
1548.531500,1800
1548.532000,1815
1548.532500,1820
1548.533000,1808
1548.533500,1814
1548.534000,1811
1548.534500,1799
1548.535000,1790
1548.535500,1807
1548.536000,1803
1548.536500,1799
1548.537000,1810
1548.537500,1816
1548.538000,1797
1548.538500,1808
1548.539000,1815
1548.539500,1800
1548.540000,1797
1548.540500,1812
1548.541000,1806
1548.541500,1800
1548.542000,1811
1548.542500,1821
1548.543000,1800
1548.543500,1811
1548.544000,1811
1548.544500,1800
1548.545000,1796
1548.545500,1814
1548.546000,1811
1548.546500,1804
1548.547000,1818
1548.547500,1823
1548.548000,1805
1548.548500,1814
1548.549000,1818
1548.549500,1808
1548.550000,1802
1548.550500,1817
1548.551000,1806
1548.551500,1799
1548.552000,1807
1548.552500,1820
1548.553000,1802
1548.553500,1809
1548.554000,1813
1548.554500,1799
1548.555000,1793
1548.555500,1806
1548.556000,1796
1548.556500,1789
1548.557000,1803
1548.557500,1812
1548.558000,1799
1548.558500,1807
1548.559000,1805
1548.559500,1788
1548.560000,1784
1548.560500,1801
1548.561000,1795
1548.561500,1790
1548.562000,1810
1548.562500,1816
1548.563000,1798
1548.563500,1808
1548.564000,1814
1548.564500,1805
1548.565000,1803
1548.565500,1823
1548.566000,1816
1548.566500,1810
1548.567000,1821
1548.567500,1828
1548.568000,1813
1548.568500,1821
1548.569000,1827
1548.569500,1815
1548.570000,1807
1548.570500,1818
1548.571000,1810
1548.571500,1801
1548.572000,1812
1548.572500,1817
1548.573000,1792
1548.573500,1799
1548.574000,1796
1548.574500,1783
1548.575000,1775
1548.575500,1791
1548.576000,1783
1548.576500,1778
1548.577000,1793
1548.577500,1805
1548.578000,1790
1548.578500,1799
1548.579000,1801
1548.579500,1792
1548.580000,1790
1548.580500,1806
1548.581000,1800
1548.581500,1791
1548.582000,1806
1548.582500,1808
1548.583000,1794
1548.583500,1796
1548.584000,1811
1548.584500,1801
1548.585000,1803
1548.585500,1824
1548.586000,1820
1548.586500,1812
1548.587000,1824
1548.587500,1835
1548.588000,1819
1548.588500,1824
1548.589000,1833
1548.589500,1821
1548.590000,1816
1548.590500,1831
1548.591000,1819
1548.591500,1812
1548.592000,1822
1548.592500,1825
1548.593000,1808
1548.593500,1811
1548.594000,1809
1548.594500,1794
1548.595000,1784
1548.595500,1793
1548.596000,1788
1548.596500,1780
1548.597000,1792
1548.597500,1797
1548.598000,1789
1548.598500,1787
1548.599000,1799
1548.599500,1787
1548.600000,1784
1548.600500,1803
1548.601000,1798
1548.601500,1793
1548.602000,1811
1548.602500,1824
1548.603000,1810
1548.603500,1812
1548.604000,1829
1548.604500,1818
1548.605000,1814
1548.605500,1827
1548.606000,1821
1548.606500,1815
1548.607000,1826
1548.607500,1829
1548.608000,1813
1548.608500,1826
1548.609000,1815
1548.609500,1800
1548.610000,1791
1548.610500,1802
1548.611000,1785
1548.611500,1784
1548.612000,1795
1548.612500,1798
1548.613000,1787
1548.613500,1779
1548.614000,1795
1548.614500,1785
1548.615000,1784
1548.615500,1798
1548.616000,1808
1548.616500,1789
1548.617000,1808
1548.617500,1824
1548.618000,1820
1548.618500,1824
1548.619000,1842
1548.619500,1835
1548.620000,1823
1548.620500,1833
1548.621000,1835
1548.621500,1812
1548.622000,1820
1548.622500,1827
1548.623000,1813
1548.623500,1802
1548.624000,1809
1548.624500,1797
1548.625000,1787
1548.625500,1797
1548.626000,1799
1548.626500,1782
1548.627000,1790
1548.627500,1802
1548.628000,1787
1548.628500,1783
1548.629000,1798
1548.629500,1790
1548.630000,1786
1548.630500,1800
1548.631000,1806
1548.631500,1792
1548.632000,1802
1548.632500,1808
1548.633000,1796
1548.633500,1793
1548.634000,1809
1548.634500,1804
1548.635000,1799
1548.635500,1812
1548.636000,1821
1548.636500,1807
1548.637000,1824
1548.637500,1813
1548.638000,1803
1548.638500,1792
1548.639000,1805
1548.639500,1798
1548.640000,1794
1548.640500,1807
1548.641000,1814
1548.641500,1799
1548.642000,1825
1548.642500,1820
1548.643000,1808
1548.643500,1807
1548.644000,1821
1548.644500,1813
1548.645000,1807
1548.645500,1818
1548.646000,1822
1548.646500,1806
1548.647000,1822
1548.647500,1830
1548.648000,1820
1548.648500,1814
1548.649000,1823
1548.649500,1809
1548.650000,1801
1548.650500,1811
1548.651000,1811
1548.651500,1800
1548.652000,1816
1548.652500,1811
1548.653000,1801
1548.653500,1793
1548.654000,1800
1548.654500,1785
1548.655000,1777
1548.655500,1789
1548.656000,1798
1548.656500,1785
1548.657000,1810
1548.657500,1803
1548.658000,1793
1548.658500,1791
1548.659000,1805
1548.659500,1797
1548.660000,1796
1548.660500,1806
1548.661000,1814
1548.661500,1803
1548.662000,1798
1548.662500,1814
1548.663000,1803
1548.663500,1800
1548.664000,1818
1548.664500,1804
1548.665000,1808
1548.665500,1822
1548.666000,1828
1548.666500,1815
1548.667000,1826
1548.667500,1830
1548.668000,1815
1548.668500,1809
1548.669000,1822
1548.669500,1810
1548.670000,1807
1548.670500,1815
1548.671000,1815
1548.671500,1797
1548.672000,1812
1548.672500,1814
1548.673000,1804
1548.673500,1806
1548.674000,1822
1548.674500,1808
1548.675000,1806
1548.675500,1816
1548.676000,1818
1548.676500,1803
1548.677000,1821
1548.677500,1818
1548.678000,1809
1548.678500,1800
1548.679000,1808
1548.679500,1791
1548.680000,1783
1548.680500,1793
1548.681000,1793
1548.681500,1778
1548.682000,1797
1548.682500,1796
1548.683000,1786
1548.683500,1782
1548.684000,1797
1548.684500,1790
1548.685000,1788
1548.685500,1803
1548.686000,1813
1548.686500,1801
1548.687000,1825
1548.687500,1815
1548.688000,1808
1548.688500,1805
1548.689000,1815
1548.689500,1803
1548.690000,1802
1548.690500,1818
1548.691000,1826
1548.691500,1818
1548.692000,1836
1548.692500,1830
1548.693000,1820
1548.693500,1815
1548.694000,1827
1548.694500,1817
1548.695000,1813
1548.695500,1819
1548.696000,1823
1548.696500,1808
1548.697000,1823
1548.697500,1814
1548.698000,1796
1548.698500,1787
1548.699000,1795
1548.699500,1784
1548.700000,1781
1548.700500,1795
1548.701000,1800
1548.701500,1787
1548.702000,1797
1548.702500,1805
1548.703000,1794
1548.703500,1790
1548.704000,1804
1548.704500,1791
1548.705000,1795
1548.705500,1806
1548.706000,1811
1548.706500,1797
1548.707000,1808
1548.707500,1811
1548.708000,1801
1548.708500,1798
1548.709000,1811
1548.709500,1811
1548.710000,1800
1548.710500,1813
1548.711000,1821
1548.711500,1808
1548.712000,1805
1548.712500,1823
1548.713000,1807
1548.713500,1799
1548.714000,1808
1548.714500,1810
1548.715000,1787
1548.715500,1800
1548.716000,1805
1548.716500,1795
1548.717000,1802
1548.717500,1827
1548.718000,1821
1548.718500,1815
1548.719000,1824
1548.719500,1827
1548.720000,1810
1548.720500,1820
1548.721000,1824
1548.721500,1812
1548.722000,1807
1548.722500,1824
1548.723000,1806
1548.723500,1793
1548.724000,1797
1548.724500,1803
1548.725000,1787
1548.725500,1795
1548.726000,1803
1548.726500,1791
1548.727000,1788
1548.727500,1809
1548.728000,1802
1548.728500,1798
1548.729000,1810
1548.729500,1814
1548.730000,1800
1548.730500,1809
1548.731000,1807
1548.731500,1797
1548.732000,1794
1548.732500,1812
1548.733000,1802
1548.733500,1794
1548.734000,1805
1548.734500,1810
1548.735000,1800
1548.735500,1802
1548.736000,1813
1548.736500,1799
1548.737000,1799
1548.737500,1819
1548.738000,1811
1548.738500,1807
1548.739000,1813
1548.739500,1822
1548.740000,1808
1548.740500,1808
1548.741000,1821
1548.741500,1809
1548.742000,1803
1548.742500,1817
1548.743000,1807
1548.743500,1794
1548.744000,1800
1548.744500,1807
1548.745000,1794
1548.745500,1813
1548.746000,1810
1548.746500,1799
1548.747000,1792
1548.747500,1813
1548.748000,1800
1548.748500,1799
1548.749000,1805
1548.749500,1813
1548.750000,1799
1548.750500,1813
1548.751000,1811
1548.751500,1797
1548.752000,1789
1548.752500,1806
1548.753000,1789
1548.753500,1793
1548.754000,1810
1548.754500,1823
1548.755000,1811
1548.755500,1827
1548.756000,1826
1548.756500,1814
1548.757000,1811
1548.757500,1828
1548.758000,1831
1548.758500,1809
1548.759000,1817
1548.759500,1821
1548.760000,1806
1548.760500,1796
1548.761000,1809
1548.761500,1794
1548.762000,1790
1548.762500,1804
1548.763000,1808
1548.763500,1792
1548.764000,1799
1548.764500,1801
1548.765000,1785
1548.765500,1779
1548.766000,1795
1548.766500,1786
1548.767000,1782
1548.767500,1803
1548.768000,1808
1548.768500,1791
1548.769000,1803
1548.769500,1811
1548.770000,1798
1548.770500,1794
1548.771000,1809
1548.771500,1801
1548.772000,1797
1548.772500,1815
1548.773000,1819
1548.773500,1803
1548.774000,1810
1548.774500,1816
1548.775000,1804
1548.775500,1803
1548.776000,1817
1548.776500,1808
1548.777000,1800
1548.777500,1814
1548.778000,1818
1548.778500,1799
1548.779000,1801
1548.779500,1806
1548.780000,1796
1548.780500,1797
1548.781000,1817
1548.781500,1808
1548.782000,1802
1548.782500,1817
1548.783000,1820
1548.783500,1808
1548.784000,1813
1548.784500,1819
1548.785000,1804
1548.785500,1801
1548.786000,1817
1548.786500,1809
1548.787000,1802
1548.787500,1815
1548.788000,1817
1548.788500,1803
1548.789000,1804
1548.789500,1815
1548.790000,1802
1548.790500,1799
1548.791000,1814
1548.791500,1809
1548.792000,1800
1548.792500,1816
1548.793000,1820
1548.793500,1804
1548.794000,1824
1548.794500,1822
1548.795000,1812
1548.795500,1809
1548.796000,1824
1548.796500,1817
1548.797000,1810
1548.797500,1825
1548.798000,1826
1548.798500,1810
1548.799000,1815
1548.799500,1820
1548.800000,1805
1548.800500,1796
1548.801000,1809
1548.801500,1788
1548.802000,1785
1548.802500,1797
1548.803000,1802
1548.803500,1787
1548.804000,1782
1548.804500,1806
1548.805000,1802
1548.805500,1801
1548.806000,1812
1548.806500,1820
1548.807000,1802
1548.807500,1814
1548.808000,1815
1548.808500,1808
1548.809000,1805
1548.809500,1825
1548.810000,1817
1548.810500,1816
1548.811000,1827
1548.811500,1828
1548.812000,1806
1548.812500,1820
1548.813000,1821
1548.813500,1802
1548.814000,1787
1548.814500,1800
1548.815000,1784
1548.815500,1775
1548.816000,1784
1548.816500,1787
1548.817000,1774
1548.817500,1786
1548.818000,1793
1548.818500,1784
1548.819000,1783
1548.819500,1798
1548.820000,1795
1548.820500,1790
1548.821000,1808
1548.821500,1814
1548.822000,1803
1548.822500,1812
1548.823000,1817
1548.823500,1808
1548.824000,1801
1548.824500,1815
1548.825000,1810
1548.825500,1802
1548.826000,1815
1548.826500,1819
1548.827000,1803
1548.827500,1814
1548.828000,1817
1548.828500,1807
1548.829000,1798
1548.829500,1815
1548.830000,1807
1548.830500,1801
1548.831000,1814
1548.831500,1818
1548.832000,1806
1548.832500,1823
1548.833000,1817
1548.833500,1806
1548.834000,1798
1548.834500,1812
1548.835000,1793
1548.835500,1794
1548.836000,1804
1548.836500,1804
1548.837000,1788
1548.837500,1790
1548.838000,1802
1548.838500,1790
1548.839000,1785
1548.839500,1802
1548.840000,1812
1548.840500,1796
1548.841000,1809
1548.841500,1814
1548.842000,1804
1548.842500,1806
1548.843000,1820
1548.843500,1811
1548.844000,1803
1548.844500,1817
1548.845000,1817
1548.845500,1802
1548.846000,1808
1548.846500,1814
1548.847000,1803
1548.847500,1799
1548.848000,1815
1548.848500,1810
1548.849000,1799
1548.849500,1811
1548.850000,1815
1548.850500,1799
1548.851000,1807
1548.851500,1810
1548.852000,1796
1548.852500,1796
1548.853000,1815
1548.853500,1809
1548.854000,1800
1548.854500,1809
1548.855000,1815
1548.855500,1798
1548.856000,1799
1548.856500,1815
1548.857000,1805
1548.857500,1804
1548.858000,1815
1548.858500,1809
1548.859000,1800
1548.859500,1811
1548.860000,1818
1548.860500,1801
1548.861000,1817
1548.861500,1808
1548.862000,1797
1548.862500,1796
1548.863000,1807
1548.863500,1795
1548.864000,1796
1548.864500,1808
1548.865000,1812
1548.865500,1800
1548.866000,1798
1548.866500,1812
1548.867000,1803
1548.867500,1802
1548.868000,1816
1548.868500,1821
1548.869000,1798
1548.869500,1812
1548.870000,1819
1548.870500,1806
1548.871000,1801
1548.871500,1816
1548.872000,1806
1548.872500,1806
1548.873000,1832
1548.873500,1842
1548.874000,1825
1548.874500,1830
1548.875000,1832
1548.875500,1820
1548.876000,1810
1548.876500,1826
1548.877000,1812
1548.877500,1807
1548.878000,1816
1548.878500,1815
1548.879000,1789
1548.879500,1795
1548.880000,1789
1548.880500,1773
1548.881000,1771
1548.881500,1793
1548.882000,1785
1548.882500,1786
1548.883000,1801
1548.883500,1806
1548.884000,1787
1548.884500,1792
1548.885000,1807
1548.885500,1799
1548.886000,1794
1548.886500,1807
1548.887000,1800
1548.887500,1792
1548.888000,1801
1548.888500,1806
1548.889000,1787
1548.889500,1815
1548.890000,1812
1548.890500,1806
1548.891000,1799
1548.891500,1815
1548.892000,1805
1548.892500,1803
1548.893000,1816
1548.893500,1821
1548.894000,1805
1548.894500,1797
1548.895000,1814
1548.895500,1802
1548.896000,1794
1548.896500,1805
1548.897000,1810
1548.897500,1797
1548.898000,1808
1548.898500,1812
1548.899000,1798
1548.899500,1794
1548.900000,1811
1548.900500,1803
1548.901000,1797
1548.901500,1811
1548.902000,1819
1548.902500,1801
1548.903000,1816
1548.903500,1823
1548.904000,1806
1548.904500,1799
1548.905000,1814
1548.905500,1803
1548.906000,1796
1548.906500,1806
1548.907000,1812
1548.907500,1801
1548.908000,1808
1548.908500,1816
1548.909000,1802
1548.909500,1797
1548.910000,1813
1548.910500,1806
1548.911000,1801
1548.911500,1814
1548.912000,1817
1548.912500,1805
1548.913000,1823
1548.913500,1816
1548.914000,1803
1548.914500,1793
1548.915000,1807
1548.915500,1799
1548.916000,1801
1548.916500,1812
1548.917000,1818
1548.917500,1803
1548.918000,1810
1548.918500,1815
1548.919000,1804
1548.919500,1799
1548.920000,1812
1548.920500,1815
1548.921000,1794
1548.921500,1808
1548.922000,1812
1548.922500,1795
1548.923000,1791
1548.923500,1807
1548.924000,1798
1548.924500,1794
1548.925000,1806
1548.925500,1813
1548.926000,1799
1548.926500,1804
1548.927000,1811
1548.927500,1804
1548.928000,1797
1548.928500,1813
1548.929000,1806
1548.929500,1803
1548.930000,1816
1548.930500,1823
1548.931000,1805
1548.931500,1816
1548.932000,1826
1548.932500,1825
1548.933000,1820
1548.933500,1834
1548.934000,1824
1548.934500,1817
1548.935000,1828
1548.935500,1828
1548.936000,1810
1548.936500,1823
1548.937000,1813
1548.937500,1801
1548.938000,1790
1548.938500,1804
1548.939000,1787
1548.939500,1780
1548.940000,1789
1548.940500,1794
1548.941000,1780
1548.941500,1783
1548.942000,1796
1548.942500,1795
1548.943000,1789
1548.943500,1810
1548.944000,1820
1548.944500,1806
1548.945000,1819
1548.945500,1824
1548.946000,1809
1548.946500,1801
1548.947000,1814
1548.947500,1809
1548.948000,1797
1548.948500,1807
1548.949000,1808
1548.949500,1795
1548.950000,1806
1548.950500,1814
1548.951000,1801
1548.951500,1792
1548.952000,1803
1548.952500,1795
1548.953000,1790
1548.953500,1803
1548.954000,1806
1548.954500,1793
1548.955000,1807
1548.955500,1812
1548.956000,1802
1548.956500,1800
1548.957000,1817
1548.957500,1811
1548.958000,1806
1548.958500,1816
1548.959000,1818
1548.959500,1800
1548.960000,1800
1548.960500,1814
1548.961000,1801
1548.961500,1795
1548.962000,1805
1548.962500,1797
1548.963000,1790
1548.963500,1805
1548.964000,1808
1548.964500,1795
1548.965000,1819
1548.965500,1808
1548.966000,1798
1548.966500,1797
1548.967000,1811
1548.967500,1803
1548.968000,1798
1548.968500,1806
1548.969000,1810
1548.969500,1792
1548.970000,1806
1548.970500,1811
1548.971000,1803
1548.971500,1799
1548.972000,1813
1548.972500,1809
1548.973000,1800
1548.973500,1812
1548.974000,1817
1548.974500,1805
1548.975000,1798
1548.975500,1815
1548.976000,1807
1548.976500,1806
1548.977000,1822
1548.977500,1829
1548.978000,1805
1548.978500,1817
1548.979000,1819
1548.979500,1804
1548.980000,1795
1548.980500,1811
1548.981000,1802
1548.981500,1796
1548.982000,1807
1548.982500,1814
1548.983000,1797
1548.983500,1801
1548.984000,1802
1548.984500,1792
1548.985000,1788
1548.985500,1806
1548.986000,1798
1548.986500,1795
1548.987000,1809
1548.987500,1819
1548.988000,1801
1548.988500,1813
1548.989000,1817
1548.989500,1803
1548.990000,1800
1548.990500,1819
1548.991000,1812
1548.991500,1808
1548.992000,1818
1548.992500,1826
1548.993000,1808
1548.993500,1817
1548.994000,1821
1548.994500,1808
1548.995000,1804
1548.995500,1823
1548.996000,1815
1548.996500,1806
1548.997000,1818
1548.997500,1817
1548.998000,1799
1548.998500,1811
1548.999000,1812
1548.999500,1799
1549.000000,1793
1549.000500,1808
1549.001000,1801
1549.001500,1796
1549.002000,1805
1549.002500,1813
1549.003000,1796
1549.003500,1806
1549.004000,1807
1549.004500,1796
1549.005000,1790
1549.005500,1808
1549.006000,1799
1549.006500,1793
1549.007000,1804
1549.007500,1810
1549.008000,1792
1549.008500,1792
1549.009000,1805
1549.009500,1792
1549.010000,1788
1549.010500,1804
1549.011000,1801
1549.011500,1796
1549.012000,1809
1549.012500,1817
1549.013000,1804
1549.013500,1825
1549.014000,1814
1549.014500,1802
1549.015000,1797
1549.015500,1813
1549.016000,1802
1549.016500,1802
1549.017000,1817
1549.017500,1821
1549.018000,1806
1549.018500,1813
1549.019000,1819
1549.019500,1806
1549.020000,1804
1549.020500,1817
1549.021000,1821
1549.021500,1801
1549.022000,1811
1549.022500,1814
1549.023000,1798
1549.023500,1791
1549.024000,1809
1549.024500,1797
1549.025000,1788
1549.025500,1801
1549.026000,1805
1549.026500,1793
1549.027000,1804
1549.027500,1814
1549.028000,1802
1549.028500,1799
1549.029000,1814
1549.029500,1807
1549.030000,1800
1549.030500,1813
1549.031000,1822
1549.031500,1802
1549.032000,1815
1549.032500,1822
1549.033000,1814
1549.033500,1806
1549.034000,1814
1549.034500,1803
1549.035000,1793
1549.035500,1805
1549.036000,1813
1549.036500,1800
1549.037000,1808
1549.037500,1815
1549.038000,1803
1549.038500,1800
1549.039000,1807
1549.039500,1803
1549.040000,1792
1549.040500,1805
1549.041000,1810
1549.041500,1795
1549.042000,1816
1549.042500,1805
1549.043000,1800
1549.043500,1801
1549.044000,1817
1549.044500,1808
1549.045000,1802
1549.045500,1814
1549.046000,1820
1549.046500,1804
1549.047000,1820
1549.047500,1823
1549.048000,1808
1549.048500,1798
1549.049000,1810
1549.049500,1800
1549.050000,1794
1549.050500,1803
1549.051000,1811
1549.051500,1803
1549.052000,1816
1549.052500,1826
1549.053000,1815
1549.053500,1810
1549.054000,1817
1549.054500,1804
1549.055000,1804
1549.055500,1813
1549.056000,1817
1549.056500,1799
1549.057000,1793
1549.057500,1809
1549.058000,1791
1549.058500,1785
1549.059000,1792
1549.059500,1808
1549.060000,1797
1549.060500,1814
1549.061000,1823
1549.061500,1813
1549.062000,1809
1549.062500,1829
1549.063000,1815
1549.063500,1807
1549.064000,1815
1549.064500,1820
1549.065000,1797
1549.065500,1809
1549.066000,1806
1549.066500,1786
1549.067000,1779
1549.067500,1801
1549.068000,1791
1549.068500,1786
1549.069000,1798
1549.069500,1806
1549.070000,1793
1549.070500,1803
1549.071000,1809
1549.071500,1796
1549.072000,1796
1549.072500,1814
1549.073000,1807
1549.073500,1800
1549.074000,1812
1549.074500,1817
1549.075000,1797
1549.075500,1807
1549.076000,1812
1549.076500,1802
1549.077000,1797
1549.077500,1814
1549.078000,1804
1549.078500,1799
1549.079000,1809
1549.079500,1812
1549.080000,1797
1549.080500,1798
1549.081000,1814
1549.081500,1800
1549.082000,1798
1549.082500,1816
1549.083000,1808
1549.083500,1797
1549.084000,1803
1549.084500,1807
1549.085000,1795
1549.085500,1806
1549.086000,1811
1549.086500,1803
1549.087000,1800
1549.087500,1816
1549.088000,1811
1549.088500,1805
1549.089000,1814
1549.089500,1818
1549.090000,1806
1549.090500,1823
1549.091000,1824
1549.091500,1813
1549.092000,1807
1549.092500,1825
1549.093000,1803
1549.093500,1802
1549.094000,1812
1549.094500,1818
1549.095000,1804
1549.095500,1796
1549.096000,1807
1549.096500,1792
1549.097000,1784
1549.097500,1796
1549.098000,1802
1549.098500,1784
1549.099000,1798
1549.099500,1805
1549.100000,1795
1549.100500,1790
1549.101000,1808
1549.101500,1799
1549.102000,1797
1549.102500,1813
1549.103000,1815
1549.103500,1800
1549.104000,1814
1549.104500,1819
1549.105000,1806
1549.105500,1803
1549.106000,1818
1549.106500,1808
1549.107000,1799
1549.107500,1820
1549.108000,1820
1549.108500,1798
1549.109000,1805
1549.109500,1810
1549.110000,1800
1549.110500,1794
1549.111000,1810
1549.111500,1800
1549.112000,1792
1549.112500,1811
1549.113000,1815
1549.113500,1798
1549.114000,1809
1549.114500,1816
1549.115000,1805
1549.115500,1801
1549.116000,1818
1549.116500,1808
1549.117000,1803
1549.117500,1822
1549.118000,1822
1549.118500,1802
1549.119000,1812
1549.119500,1812
1549.120000,1799
1549.120500,1792
1549.121000,1806
1549.121500,1796
1549.122000,1791
1549.122500,1807
1549.123000,1811
1549.123500,1797
1549.124000,1804
1549.124500,1811
1549.125000,1798
1549.125500,1796
1549.126000,1812
1549.126500,1803
1549.127000,1798
1549.127500,1814
1549.128000,1818
1549.128500,1806
1549.129000,1818
1549.129500,1826
1549.130000,1815
1549.130500,1808
1549.131000,1824
1549.131500,1815
1549.132000,1808
1549.132500,1820
1549.133000,1826
1549.133500,1809
1549.134000,1811
1549.134500,1814
1549.135000,1805
1549.135500,1802
1549.136000,1820
1549.136500,1806
1549.137000,1803
1549.137500,1818
1549.138000,1819
1549.138500,1803
1549.139000,1804
1549.139500,1808
1549.140000,1790
1549.140500,1782
1549.141000,1794
1549.141500,1788
1549.142000,1783
1549.142500,1796
1549.143000,1801
1549.143500,1788
1549.144000,1798
1549.144500,1808
1549.145000,1796
1549.145500,1791
1549.146000,1805
1549.146500,1797
1549.147000,1791
1549.147500,1806
1549.148000,1813
1549.148500,1800
1549.149000,1807
1549.149500,1810
1549.150000,1798
1549.150500,1794
1549.151000,1810
1549.151500,1804
1549.152000,1800
1549.152500,1815
1549.153000,1817
1549.153500,1804
1549.154000,1815
1549.154500,1820
1549.155000,1807
1549.155500,1802
1549.156000,1814
1549.156500,1807
1549.157000,1800
1549.157500,1812
1549.158000,1816
1549.158500,1800
1549.159000,1811
1549.159500,1816
1549.160000,1802
1549.160500,1799
1549.161000,1816
1549.161500,1809
1549.162000,1802
1549.162500,1817
1549.163000,1818
1549.163500,1804
1549.164000,1806
1549.164500,1821
1549.165000,1807
1549.165500,1802
1549.166000,1817
1549.166500,1806
1549.167000,1800
1549.167500,1811
1549.168000,1818
1549.168500,1800
1549.169000,1813
1549.169500,1807
1549.170000,1796
1549.170500,1790
1549.171000,1806
1549.171500,1801
1549.172000,1795
1549.172500,1813
1549.173000,1820
1549.173500,1808
1549.174000,1827
1549.174500,1817
1549.175000,1807
1549.175500,1800
1549.176000,1816
1549.176500,1808
1549.177000,1807
1549.177500,1821
1549.178000,1822
1549.178500,1805
1549.179000,1819
1549.179500,1804
1549.180000,1790
1549.180500,1786
1549.181000,1800
1549.181500,1790
1549.182000,1788
1549.182500,1800
1549.183000,1807
1549.183500,1794
1549.184000,1799
1549.184500,1811
1549.185000,1807
1549.185500,1808
1549.186000,1827
1549.186500,1812
1549.187000,1814
1549.187500,1826
1549.188000,1828
1549.188500,1813
1549.189000,1803
1549.189500,1820
1549.190000,1804
1549.190500,1798
1549.191000,1813
1549.191500,1806
1549.192000,1791
1549.192500,1808
1549.193000,1812
1549.193500,1800
1549.194000,1792
1549.194500,1809
1549.195000,1799
1549.195500,1792
1549.196000,1803
1549.196500,1806
1549.197000,1786
1549.197500,1799
1549.198000,1802
1549.198500,1788
1549.199000,1785
1549.199500,1800
1549.200000,1793
1549.200500,1792
1549.201000,1806
1549.201500,1811
1549.202000,1791
1549.202500,1808
1549.203000,1810
1549.203500,1797
1549.204000,1790
1549.204500,1806
1549.205000,1802
1549.205500,1798
1549.206000,1813
1549.206500,1818
1549.207000,1801
1549.207500,1820
1549.208000,1822
1549.208500,1806
1549.209000,1802
1549.209500,1816
1549.210000,1807
1549.210500,1800
1549.211000,1812
1549.211500,1816
1549.212000,1803
1549.212500,1811
1549.213000,1817
1549.213500,1808
1549.214000,1803
1549.214500,1820
1549.215000,1812
1549.215500,1808
1549.216000,1821
1549.216500,1823
1549.217000,1809
1549.217500,1819
1549.218000,1825
1549.218500,1811
1549.219000,1804
1549.219500,1812
1549.220000,1803
1549.220500,1794
1549.221000,1801
1549.221500,1807
1549.222000,1796
1549.222500,1807
1549.223000,1810
1549.223500,1797
1549.224000,1789
1549.224500,1806
1549.225000,1797
1549.225500,1791
1549.226000,1805
1549.226500,1815
1549.227000,1802
1549.227500,1805
1549.228000,1817
1549.228500,1807
1549.229000,1796
1549.229500,1810
1549.230000,1806
1549.230500,1798
1549.231000,1810
1549.231500,1814
1549.232000,1796
1549.232500,1811
1549.233000,1809
1549.233500,1803
1549.234000,1795
1549.234500,1816
1549.235000,1803
1549.235500,1804
1549.236000,1815
1549.236500,1820
1549.237000,1805
1549.237500,1800
1549.238000,1820
1549.238500,1805
1549.239000,1797
1549.239500,1811
1549.240000,1810
1549.240500,1788
1549.241000,1798
1549.241500,1803
1549.242000,1791
1549.242500,1791
1549.243000,1807
1549.243500,1800
1549.244000,1794
1549.244500,1809
1549.245000,1813
1549.245500,1799
1549.246000,1816
1549.246500,1818
1549.247000,1806
1549.247500,1800
1549.248000,1818
1549.248500,1808
1549.249000,1802
1549.249500,1812
1549.250000,1818
1549.250500,1806
1549.251000,1821
1549.251500,1830
1549.252000,1814
1549.252500,1814
1549.253000,1827
1549.253500,1824
1549.254000,1818
1549.254500,1828
1549.255000,1832
1549.255500,1811
1549.256000,1817
1549.256500,1817
1549.257000,1799
1549.257500,1789
1549.258000,1793
1549.258500,1785
1549.259000,1774
1549.259500,1789
1549.260000,1795
1549.260500,1780
1549.261000,1779
1549.261500,1792
1549.262000,1782
1549.262500,1781
1549.263000,1799
1549.263500,1793
1549.264000,1786
1549.264500,1799
1549.265000,1806
1549.265500,1794
1549.266000,1822
1549.266500,1814
1549.267000,1808
1549.267500,1802
1549.268000,1816
1549.268500,1805
1549.269000,1799
1549.269500,1810
1549.270000,1815
1549.270500,1800
1549.271000,1814
1549.271500,1812
1549.272000,1800
1549.272500,1799
1549.273000,1813
1549.273500,1797
1549.274000,1797
1549.274500,1810
1549.275000,1818
1549.275500,1802
1549.276000,1810
1549.276500,1817
1549.277000,1807
1549.277500,1801
1549.278000,1816
1549.278500,1820
1549.279000,1803
1549.279500,1816
1549.280000,1823
1549.280500,1811
1549.281000,1803
1549.281500,1820
1549.282000,1813
1549.282500,1806
1549.283000,1820
1549.283500,1825
1549.284000,1805
1549.284500,1811
1549.285000,1815
1549.285500,1799
1549.286000,1792
1549.286500,1807
1549.287000,1799
1549.287500,1801
1549.288000,1808
1549.288500,1810
1549.289000,1789
1549.289500,1801
1549.290000,1804
1549.290500,1795
1549.291000,1789
1549.291500,1808
1549.292000,1799
1549.292500,1792
1549.293000,1803
1549.293500,1807
1549.294000,1790
1549.294500,1805
1549.295000,1809
1549.295500,1802
1549.296000,1799
1549.296500,1818
1549.297000,1810
1549.297500,1806
1549.298000,1818
1549.298500,1824
1549.299000,1808
1549.299500,1816
1549.300000,1820
1549.300500,1806
1549.301000,1802
1549.301500,1815
1549.302000,1806
1549.302500,1799
1549.303000,1809
1549.303500,1814
1549.304000,1797
1549.304500,1809
1549.305000,1813
1549.305500,1798
1549.306000,1793
1549.306500,1804
1549.307000,1798
1549.307500,1797
1549.308000,1811
1549.308500,1819
1549.309000,1805
1549.309500,1816
1549.310000,1818
1549.310500,1809
1549.311000,1802
1549.311500,1819
1549.312000,1810
1549.312500,1807
1549.313000,1817
1549.313500,1815
1549.314000,1794
1549.314500,1804
1549.315000,1814
1549.315500,1800
1549.316000,1793
1549.316500,1806
1549.317000,1801
1549.317500,1794
1549.318000,1807
1549.318500,1813
1549.319000,1797
1549.319500,1801
1549.320000,1812
1549.320500,1800
1549.321000,1797
1549.321500,1813
1549.322000,1803
1549.322500,1796
1549.323000,1810
1549.323500,1818
1549.324000,1801
1549.324500,1808
1549.325000,1817
1549.325500,1804
1549.326000,1798
1549.326500,1814
1549.327000,1805
1549.327500,1800
1549.328000,1811
1549.328500,1815
1549.329000,1794
1549.329500,1815
1549.330000,1806
1549.330500,1800
1549.331000,1796
1549.331500,1813
1549.332000,1796
1549.332500,1801
1549.333000,1814
1549.333500,1819
1549.334000,1805
1549.334500,1800
1549.335000,1815
1549.335500,1803
1549.336000,1799
1549.336500,1810
1549.337000,1810
1549.337500,1796
1549.338000,1809
1549.338500,1813
1549.339000,1799
1549.339500,1792
1549.340000,1809
1549.340500,1802
1549.341000,1799
1549.341500,1813
1549.342000,1820
1549.342500,1801
1549.343000,1812
1549.343500,1821
1549.344000,1812
1549.344500,1807
1549.345000,1819
1549.345500,1809
1549.346000,1799
1549.346500,1808
1549.347000,1811
1549.347500,1796
1549.348000,1798
1549.348500,1799
1549.349000,1786
1549.349500,1782
1549.350000,1797
1549.350500,1791
1549.351000,1790
1549.351500,1804
1549.352000,1809
1549.352500,1795
1549.353000,1811
1549.353500,1811
1549.354000,1799
1549.354500,1796
1549.355000,1810
1549.355500,1804
1549.356000,1796
1549.356500,1809
1549.357000,1816
1549.357500,1809
1549.358000,1805
1549.358500,1821
1549.359000,1811
1549.359500,1806
1549.360000,1823
1549.360500,1817
1549.361000,1810
1549.361500,1822
1549.362000,1823
1549.362500,1811
1549.363000,1816
1549.363500,1818
1549.364000,1805
1549.364500,1800
1549.365000,1810
1549.365500,1802
1549.366000,1794
1549.366500,1801
1549.367000,1805
1549.367500,1792
1549.368000,1804
1549.368500,1807
1549.369000,1795
1549.369500,1791
1549.370000,1806
1549.370500,1798
1549.371000,1789
1549.371500,1803
1549.372000,1809
1549.372500,1799
1549.373000,1806
1549.373500,1813
1549.374000,1797
1549.374500,1794
1549.375000,1811
1549.375500,1802
1549.376000,1799
1549.376500,1813
1549.377000,1822
1549.377500,1807
1549.378000,1819
1549.378500,1820
1549.379000,1806
1549.379500,1802
1549.380000,1820
1549.380500,1814
1549.381000,1810
1549.381500,1822
1549.382000,1826
1549.382500,1806
1549.383000,1815
1549.383500,1815
1549.384000,1797
1549.384500,1788
1549.385000,1801
1549.385500,1795
1549.386000,1789
1549.386500,1804
1549.387000,1807
1549.387500,1789
1549.388000,1801
1549.388500,1806
1549.389000,1792
1549.389500,1794
1549.390000,1806
1549.390500,1798
1549.391000,1798
1549.391500,1813
1549.392000,1805
1549.392500,1804
1549.393000,1814
1549.393500,1823
1549.394000,1810
1549.394500,1805
1549.395000,1825
1549.395500,1813
1549.396000,1809
1549.396500,1822
1549.397000,1805
1549.397500,1805
1549.398000,1815
1549.398500,1816
1549.399000,1801
1549.399500,1808
1549.400000,1814
1549.400500,1803
1549.401000,1801
1549.401500,1816
1549.402000,1822
1549.402500,1797
1549.403000,1809
1549.403500,1815
1549.404000,1800
1549.404500,1798
1549.405000,1816
1549.405500,1804
1549.406000,1794
1549.406500,1808
1549.407000,1809
1549.407500,1791
1549.408000,1802
1549.408500,1814
1549.409000,1797
1549.409500,1790
1549.410000,1811
1549.410500,1797
1549.411000,1792
1549.411500,1801
1549.412000,1782
1549.412500,1789
1549.413000,1797
1549.413500,1803
1549.414000,1786
1549.414500,1807
1549.415000,1806
1549.415500,1796
1549.416000,1792
1549.416500,1805
1549.417000,1798
1549.417500,1799
1549.418000,1810
1549.418500,1819
1549.419000,1801
1549.419500,1825
1549.420000,1815
1549.420500,1805
1549.421000,1798
1549.421500,1813
1549.422000,1804
1549.422500,1804
1549.423000,1816
1549.423500,1823
1549.424000,1804
1549.424500,1812
1549.425000,1819
1549.425500,1805
1549.426000,1796
1549.426500,1811
1549.427000,1805
1549.427500,1805
1549.428000,1818
1549.428500,1823
1549.429000,1804
1549.429500,1812
1549.430000,1815
1549.430500,1803
1549.431000,1797
1549.431500,1811
1549.432000,1803
1549.432500,1801
1549.433000,1815
1549.433500,1819
1549.434000,1800
1549.434500,1811
1549.435000,1815
1549.435500,1802
1549.436000,1801
1549.436500,1818
1549.437000,1810
1549.437500,1806
1549.438000,1814
1549.438500,1816
1549.439000,1796
1549.439500,1805
1549.440000,1811
1549.440500,1801
1549.441000,1796
1549.441500,1811
1549.442000,1802
1549.442500,1800
1549.443000,1814
1549.443500,1818
1549.444000,1802
1549.444500,1810
1549.445000,1816
1549.445500,1805
1549.446000,1797
1549.446500,1813
1549.447000,1803
1549.447500,1801
1549.448000,1809
1549.448500,1815
1549.449000,1796
1549.449500,1809
1549.450000,1814
1549.450500,1802
1549.451000,1802
1549.451500,1823
1549.452000,1816
1549.452500,1815
1549.453000,1829
1549.453500,1833
1549.454000,1810
1549.454500,1820
1549.455000,1824
1549.455500,1809
1549.456000,1800
1549.456500,1813
1549.457000,1798
1549.457500,1788
1549.458000,1801
1549.458500,1796
1549.459000,1776
1549.459500,1788
1549.460000,1795
1549.460500,1781
1549.461000,1788
1549.461500,1797
1549.462000,1789
1549.462500,1792
1549.463000,1808
1549.463500,1794
1549.464000,1794
1549.464500,1804
1549.465000,1810
1549.465500,1798
1549.466000,1816
1549.466500,1812
1549.467000,1803
1549.467500,1801
1549.468000,1817
1549.468500,1806
1549.469000,1801
1549.469500,1811
1549.470000,1818
1549.470500,1806
1549.471000,1801
1549.471500,1819
1549.472000,1808
1549.472500,1806
1549.473000,1815
1549.473500,1809
1549.474000,1802
1549.474500,1812
1549.475000,1815
1549.475500,1801
1549.476000,1795
1549.476500,1812
1549.477000,1803
1549.477500,1798
1549.478000,1809
1549.478500,1802
1549.479000,1794
1549.479500,1802
1549.480000,1810
1549.480500,1798
1549.481000,1792
1549.481500,1812
1549.482000,1800
1549.482500,1800
1549.483000,1809
1549.483500,1813
1549.484000,1796
1549.484500,1807
1549.485000,1813
1549.485500,1798
1549.486000,1792
1549.486500,1809
1549.487000,1800
1549.487500,1795
1549.488000,1810
1549.488500,1817
1549.489000,1796
1549.489500,1810
1549.490000,1816
1549.490500,1801
1549.491000,1794
1549.491500,1813
1549.492000,1807
1549.492500,1802
1549.493000,1818
1549.493500,1826
1549.494000,1807
1549.494500,1816
1549.495000,1825
1549.495500,1811
1549.496000,1802
1549.496500,1816
1549.497000,1805
1549.497500,1802
1549.498000,1816
1549.498500,1819
1549.499000,1795
1549.499500,1802
1549.500000,1809
1549.500500,1797
1549.501000,1793
1549.501500,1809
1549.502000,1802
1549.502500,1796
1549.503000,1811
1549.503500,1813
1549.504000,1794
1549.504500,1800
1549.505000,1809
1549.505500,1797
1549.506000,1791
1549.506500,1812
1549.507000,1801
1549.507500,1802
1549.508000,1815
1549.508500,1821
1549.509000,1799
1549.509500,1810
1549.510000,1812
1549.510500,1800
1549.511000,1796
1549.511500,1812
1549.512000,1804
1549.512500,1799
1549.513000,1807
1549.513500,1806
1549.514000,1788
1549.514500,1803
1549.515000,1809
1549.515500,1796
1549.516000,1792
1549.516500,1810
1549.517000,1802
1549.517500,1800
1549.518000,1815
1549.518500,1821
1549.519000,1804
1549.519500,1816
1549.520000,1822
1549.520500,1806
1549.521000,1802
1549.521500,1820
1549.522000,1806
1549.522500,1803
1549.523000,1814
1549.523500,1818
1549.524000,1797
1549.524500,1812
1549.525000,1820
1549.525500,1809
1549.526000,1803
1549.526500,1817
1549.527000,1807
1549.527500,1804
1549.528000,1813
1549.528500,1816
1549.529000,1793
1549.529500,1800
1549.530000,1801
1549.530500,1788
1549.531000,1784
1549.531500,1800
1549.532000,1789
1549.532500,1788
1549.533000,1803
1549.533500,1808
1549.534000,1786
1549.534500,1803
1549.535000,1808
1549.535500,1797
1549.536000,1794
1549.536500,1815
1549.537000,1807
1549.537500,1807
1549.538000,1817
1549.538500,1821
1549.539000,1801
1549.539500,1813
1549.540000,1821
1549.540500,1811
1549.541000,1809
1549.541500,1824
1549.542000,1814
1549.542500,1813
1549.543000,1822
1549.543500,1827
1549.544000,1804
1549.544500,1816
1549.545000,1819
1549.545500,1804
1549.546000,1799
1549.546500,1810
1549.547000,1791
1549.547500,1786
1549.548000,1792
1549.548500,1797
1549.549000,1779
1549.549500,1794
1549.550000,1798
1549.550500,1789
1549.551000,1782
1549.551500,1803
1549.552000,1794
1549.552500,1792
1549.553000,1809
1549.553500,1819
1549.554000,1798
1549.554500,1804
1549.555000,1814
1549.555500,1800
1549.556000,1799
1549.556500,1815
1549.557000,1804
1549.557500,1798
1549.558000,1814
1549.558500,1820
1549.559000,1802
1549.559500,1810
1549.560000,1818
1549.560500,1804
1549.561000,1798
1549.561500,1813
1549.562000,1805
1549.562500,1804
1549.563000,1814
1549.563500,1819
1549.564000,1803
1549.564500,1812
1549.565000,1815
1549.565500,1802
1549.566000,1795
1549.566500,1811
1549.567000,1802
1549.567500,1794
1549.568000,1811
1549.568500,1814
1549.569000,1795
1549.569500,1807
1549.570000,1812
1549.570500,1802
1549.571000,1797
1549.571500,1814
1549.572000,1805
1549.572500,1797
1549.573000,1815
1549.573500,1820
1549.574000,1806
1549.574500,1819
1549.575000,1823
1549.575500,1812
1549.576000,1805
1549.576500,1817
1549.577000,1807
1549.577500,1803
1549.578000,1818
1549.578500,1823
1549.579000,1805
1549.579500,1807
1549.580000,1813
1549.580500,1802
1549.581000,1796
1549.581500,1811
1549.582000,1808
1549.582500,1803
1549.583000,1813
1549.583500,1820
1549.584000,1803
1549.584500,1801
1549.585000,1814
1549.585500,1801
1549.586000,1795
1549.586500,1806
1549.587000,1796
1549.587500,1786
1549.588000,1794
1549.588500,1800
1549.589000,1785
1549.589500,1806
1549.590000,1804
1549.590500,1795
1549.591000,1789
1549.591500,1805
1549.592000,1793
1549.592500,1804
1549.593000,1819
1549.593500,1829
1549.594000,1816
1549.594500,1833
1549.595000,1827
1549.595500,1818
1549.596000,1812
1549.596500,1824
1549.597000,1805
1549.597500,1810
1549.598000,1817
1549.598500,1819
1549.599000,1798
1549.599500,1802
1549.600000,1809
1549.600500,1799
1549.601000,1795
1549.601500,1808
1549.602000,1796
1549.602500,1791
1549.603000,1804
1549.603500,1808
1549.604000,1792
1549.604500,1792
1549.605000,1803
1549.605500,1794
1549.606000,1788
1549.606500,1802
1549.607000,1786
1549.607500,1782
1549.608000,1794
1549.608500,1803
1549.609000,1792
1549.609500,1797
1549.610000,1806
1549.610500,1798
1549.611000,1792
1549.611500,1806
1549.612000,1798
1549.612500,1801
1549.613000,1811
1549.613500,1819
1549.614000,1806
1549.614500,1801
1549.615000,1818
1549.615500,1807
1549.616000,1801
1549.616500,1814
1549.617000,1821
1549.617500,1802
1549.618000,1814
1549.618500,1815
1549.619000,1798
1549.619500,1791
1549.620000,1807
1549.620500,1799
1549.621000,1796
1549.621500,1809
1549.622000,1817
1549.622500,1800
1549.623000,1816
1549.623500,1819
1549.624000,1804
1549.624500,1798
1549.625000,1815
1549.625500,1805
1549.626000,1799
1549.626500,1812
1549.627000,1818
1549.627500,1807
1549.628000,1812
1549.628500,1822
1549.629000,1809
1549.629500,1801
1549.630000,1814
1549.630500,1810
1549.631000,1804
1549.631500,1814
1549.632000,1820
1549.632500,1805
1549.633000,1813
1549.633500,1817
1549.634000,1796
1549.634500,1788
1549.635000,1801
1549.635500,1795
1549.636000,1789
1549.636500,1801
1549.637000,1808
1549.637500,1795
1549.638000,1806
1549.638500,1811
1549.639000,1799
1549.639500,1796
1549.640000,1812
1549.640500,1805
1549.641000,1799
1549.641500,1809
1549.642000,1815
1549.642500,1800
1549.643000,1805
1549.643500,1817
1549.644000,1802
1549.644500,1799
1549.645000,1813
1549.645500,1807
1549.646000,1800
1549.646500,1810
1549.647000,1813
1549.647500,1802
1549.648000,1811
1549.648500,1815
1549.649000,1802
1549.649500,1800
1549.650000,1815
1549.650500,1806
1549.651000,1801
1549.651500,1812
1549.652000,1816
1549.652500,1800
1549.653000,1811
1549.653500,1816
1549.654000,1801
1549.654500,1797
1549.655000,1812
1549.655500,1809
1549.656000,1802
1549.656500,1813
1549.657000,1818
1549.657500,1801
1549.658000,1809
1549.658500,1820
1549.659000,1809
1549.659500,1806
1549.660000,1824
1549.660500,1822
1549.661000,1815
1549.661500,1826
1549.662000,1831
1549.662500,1813
1549.663000,1820
1549.663500,1822
1549.664000,1807
1549.664500,1795
1549.665000,1807
1549.665500,1794
1549.666000,1790
1549.666500,1797
1549.667000,1801
1549.667500,1787
1549.668000,1804
1549.668500,1796
1549.669000,1784
1549.669500,1783
1549.670000,1800
1549.670500,1791
1549.671000,1786
1549.671500,1803
1549.672000,1810
1549.672500,1800
1549.673000,1817
1549.673500,1816
1549.674000,1808
1549.674500,1807
1549.675000,1823
1549.675500,1816
1549.676000,1811
1549.676500,1820
1549.677000,1823
1549.677500,1804
1549.678000,1825
1549.678500,1815
1549.679000,1802
1549.679500,1795
1549.680000,1810
1549.680500,1799
1549.681000,1791
1549.681500,1796
1549.682000,1801
1549.682500,1789
1549.683000,1803
1549.683500,1801
1549.684000,1787
1549.684500,1785
1549.685000,1805
1549.685500,1793
1549.686000,1799
1549.686500,1809
1549.687000,1814
1549.687500,1807
1549.688000,1819
1549.688500,1817
1549.689000,1802
1549.689500,1800
1549.690000,1814
1549.690500,1801
1549.691000,1801
1549.691500,1807
1549.692000,1813
1549.692500,1802
1549.693000,1809
1549.693500,1813
1549.694000,1801
1549.694500,1797
1549.695000,1813
1549.695500,1804
1549.696000,1803
1549.696500,1814
1549.697000,1818
1549.697500,1803
1549.698000,1818
1549.698500,1816
1549.699000,1802
1549.699500,1797
1549.700000,1813
1549.700500,1797
1549.701000,1795
1549.701500,1809
1549.702000,1816
1549.702500,1806
1549.703000,1805
1549.703500,1825
1549.704000,1808
1549.704500,1805
1549.705000,1815
1549.705500,1807
1549.706000,1799
1549.706500,1808
1549.707000,1812
1549.707500,1797
1549.708000,1786
1549.708500,1804
1549.709000,1800
1549.709500,1795
1549.710000,1808
1549.710500,1813
1549.711000,1796
1549.711500,1809
1549.712000,1814
1549.712500,1805
1549.713000,1801
1549.713500,1820
1549.714000,1809
1549.714500,1800
1549.715000,1813
1549.715500,1815
1549.716000,1792
1549.716500,1804
1549.717000,1810
1549.717500,1797
1549.718000,1794
1549.718500,1815
1549.719000,1805
1549.719500,1801
1549.720000,1813
1549.720500,1821
1549.721000,1801
1549.721500,1814
1549.722000,1817
1549.722500,1805
1549.723000,1800
1549.723500,1818
1549.724000,1803
1549.724500,1799
1549.725000,1809
1549.725500,1809
1549.726000,1791
1549.726500,1803
1549.727000,1806
1549.727500,1798
1549.728000,1790
1549.728500,1807
1549.729000,1794
1549.729500,1789
1549.730000,1801
1549.730500,1808
1549.731000,1794
1549.731500,1805
1549.732000,1815
1549.732500,1802
1549.733000,1798
1549.733500,1815
1549.734000,1806
1549.734500,1802
1549.735000,1814
1549.735500,1821
1549.736000,1804
1549.736500,1814
1549.737000,1817
1549.737500,1802
1549.738000,1801
1549.738500,1815
1549.739000,1808
1549.739500,1800
1549.740000,1808
1549.740500,1811
1549.741000,1795
1549.741500,1798
1549.742000,1805
1549.742500,1800
1549.743000,1791
1549.743500,1806
1549.744000,1785
1549.744500,1793
1549.745000,1806
1549.745500,1814
1549.746000,1800
1549.746500,1813
1549.747000,1815
1549.747500,1811
1549.748000,1802
1549.748500,1816
1549.749000,1807
1549.749500,1805
1549.750000,1817
1549.750500,1825
1549.751000,1808
1549.751500,1829
1549.752000,1819
1549.752500,1813
1549.753000,1802
1549.753500,1818
1549.754000,1803
1549.754500,1799
1549.755000,1806
1549.755500,1812
1549.756000,1794
1549.756500,1808
1549.757000,1802
1549.757500,1800
1549.758000,1796
1549.758500,1816
1549.759000,1801
1549.759500,1800
1549.760000,1812
1549.760500,1816
1549.761000,1803
1549.761500,1804
1549.762000,1813
1549.762500,1800
1549.763000,1800
1549.763500,1812
1549.764000,1806
1549.764500,1794
1549.765000,1805
1549.765500,1809
1549.766000,1796
1549.766500,1792
1549.767000,1810
1549.767500,1803
1549.768000,1797
1549.768500,1812
1549.769000,1815
1549.769500,1795
1549.770000,1807
1549.770500,1813
1549.771000,1799
1549.771500,1793
1549.772000,1813
1549.772500,1804
1549.773000,1799
1549.773500,1812
1549.774000,1818
1549.774500,1802
1549.775000,1811
1549.775500,1816
1549.776000,1802
1549.776500,1795
1549.777000,1814
1549.777500,1805
1549.778000,1802
1549.778500,1817
1549.779000,1822
1549.779500,1801
1549.780000,1812
1549.780500,1815
1549.781000,1799
1549.781500,1795
1549.782000,1811
1549.782500,1803
1549.783000,1795
1549.783500,1808
1549.784000,1812
1549.784500,1801
1549.785000,1811
1549.785500,1818
1549.786000,1808
1549.786500,1802
1549.787000,1820
1549.787500,1813
1549.788000,1809
1549.788500,1817
1549.789000,1822
1549.789500,1808
1549.790000,1823
1549.790500,1829
1549.791000,1813
1549.791500,1807
1549.792000,1820
1549.792500,1811
1549.793000,1808
1549.793500,1814
1549.794000,1812
1549.794500,1796
1549.795000,1805
1549.795500,1805
1549.796000,1785
1549.796500,1777
1549.797000,1786
1549.797500,1780
1549.798000,1781
1549.798500,1796
1549.799000,1803
1549.799500,1793
1549.800000,1804
1549.800500,1810
1549.801000,1795
1549.801500,1792
1549.802000,1808
1549.802500,1807
1549.803000,1798
1549.803500,1811
1549.804000,1816
1549.804500,1797
1549.805000,1797
1549.805500,1812
1549.806000,1800
1549.806500,1797
1549.807000,1814
1549.807500,1809
1549.808000,1800
1549.808500,1812
1549.809000,1815
1549.809500,1801
1549.810000,1810
1549.810500,1816
1549.811000,1806
1549.811500,1800
1549.812000,1814
1549.812500,1809
1549.813000,1805
1549.813500,1816
1549.814000,1817
1549.814500,1806
1549.815000,1819
1549.815500,1816
1549.816000,1804
1549.816500,1802
1549.817000,1813
1549.817500,1801
1549.818000,1796
1549.818500,1807
1549.819000,1808
1549.819500,1793
1549.820000,1811
1549.820500,1810
1549.821000,1795
1549.821500,1788
1549.822000,1802
1549.822500,1793
1549.823000,1791
1549.823500,1804
1549.824000,1810
1549.824500,1797
1549.825000,1808
1549.825500,1807
1549.826000,1797
1549.826500,1796
1549.827000,1810
1549.827500,1798
1549.828000,1798
1549.828500,1809
1549.829000,1814
1549.829500,1801
1549.830000,1817
1549.830500,1814
1549.831000,1802
1549.831500,1798
1549.832000,1812
1549.832500,1804
1549.833000,1803
1549.833500,1813
1549.834000,1818
1549.834500,1803
1549.835000,1824
1549.835500,1817
1549.836000,1805
1549.836500,1800
1549.837000,1818
1549.837500,1807
1549.838000,1803
1549.838500,1812
1549.839000,1819
1549.839500,1804
1549.840000,1816
1549.840500,1813
1549.841000,1801
1549.841500,1798
1549.842000,1812
1549.842500,1804
1549.843000,1800
1549.843500,1810
1549.844000,1813
1549.844500,1798
1549.845000,1818
1549.845500,1813
1549.846000,1803
1549.846500,1798
1549.847000,1814
1549.847500,1808
1549.848000,1802
1549.848500,1813
1549.849000,1817
1549.849500,1801
1549.850000,1815
1549.850500,1815
1549.851000,1804
1549.851500,1801
1549.852000,1814
1549.852500,1796
1549.853000,1798
1549.853500,1810
1549.854000,1812
1549.854500,1799
1549.855000,1813
1549.855500,1810
1549.856000,1799
1549.856500,1795
1549.857000,1812
1549.857500,1803
1549.858000,1799
1549.858500,1812
1549.859000,1815
1549.859500,1801
1549.860000,1819
1549.860500,1814
1549.861000,1803
1549.861500,1795
1549.862000,1807
1549.862500,1794
1549.863000,1794
1549.863500,1805
1549.864000,1810
1549.864500,1798
1549.865000,1811
1549.865500,1809
1549.866000,1802
1549.866500,1798
1549.867000,1815
1549.867500,1816
1549.868000,1803
1549.868500,1818
1549.869000,1822
1549.869500,1809
1549.870000,1819
1549.870500,1819
1549.871000,1805
1549.871500,1799
1549.872000,1810
1549.872500,1801
1549.873000,1790
1549.873500,1797
1549.874000,1802
1549.874500,1788
1549.875000,1800
1549.875500,1805
1549.876000,1796
1549.876500,1791
1549.877000,1806
1549.877500,1805
1549.878000,1794
1549.878500,1806
1549.879000,1810
1549.879500,1799
1549.880000,1801
1549.880500,1814
1549.881000,1803
1549.881500,1799
1549.882000,1819
1549.882500,1812
1549.883000,1806
1549.883500,1817
1549.884000,1820
1549.884500,1806
1549.885000,1804
1549.885500,1819
1549.886000,1805
1549.886500,1797
1549.887000,1809
1549.887500,1799
1549.888000,1793
1549.888500,1806
1549.889000,1810
1549.889500,1797
1549.890000,1816
1549.890500,1815
1549.891000,1805
1549.891500,1800
1549.892000,1815
1549.892500,1812
1549.893000,1803
1549.893500,1813
1549.894000,1816
1549.894500,1799
1549.895000,1796
1549.895500,1808
1549.896000,1791
1549.896500,1789
1549.897000,1807
1549.897500,1810
1549.898000,1801
1549.898500,1811
1549.899000,1816
1549.899500,1799
1549.900000,1798
1549.900500,1811
1549.901000,1799
1549.901500,1793
1549.902000,1809
1549.902500,1815
1549.903000,1810
1549.903500,1824
1549.904000,1827
1549.904500,1811
1549.905000,1816
1549.905500,1821
1549.906000,1806
1549.906500,1803
1549.907000,1814
1549.907500,1812
1549.908000,1800
1549.908500,1812
1549.909000,1814
1549.909500,1792
1549.910000,1797
1549.910500,1801
1549.911000,1791
1549.911500,1784
1549.912000,1801
1549.912500,1797
1549.913000,1790
1549.913500,1807
1549.914000,1810
1549.914500,1794
1549.915000,1806
1549.915500,1811
1549.916000,1801
1549.916500,1801
1549.917000,1816
1549.917500,1812
1549.918000,1804
1549.918500,1817
1549.919000,1818
1549.919500,1802
1549.920000,1810
1549.920500,1816
1549.921000,1804
1549.921500,1796
1549.922000,1811
1549.922500,1800
1549.923000,1789
1549.923500,1800
1549.924000,1803
1549.924500,1786
1549.925000,1803
1549.925500,1814
1549.926000,1803
1549.926500,1798
1549.927000,1813
1549.927500,1808
1549.928000,1804
1549.928500,1817
1549.929000,1813
1549.929500,1804
1549.930000,1817
1549.930500,1822
1549.931000,1807
1549.931500,1820
1549.932000,1815
1549.932500,1810
1549.933000,1801
1549.933500,1817
1549.934000,1804
1549.934500,1798
1549.935000,1804
1549.935500,1813
1549.936000,1803
1549.936500,1807
1549.937000,1816
1549.937500,1809
1549.938000,1802
1549.938500,1816
1549.939000,1799
1549.939500,1802
1549.940000,1813
1549.940500,1817
1549.941000,1805
1549.941500,1820
1549.942000,1814
1549.942500,1804
1549.943000,1796
1549.943500,1805
1549.944000,1792
1549.944500,1787
1549.945000,1799
1549.945500,1806
1549.946000,1787
1549.946500,1796
1549.947000,1804
1549.947500,1800
1549.948000,1795
1549.948500,1812
1549.949000,1806
1549.949500,1796
1549.950000,1806
1549.950500,1809
1549.951000,1797
1549.951500,1802
1549.952000,1810
1549.952500,1801
1549.953000,1798
1549.953500,1813
1549.954000,1803
1549.954500,1797
1549.955000,1804
1549.955500,1813
1549.956000,1802
1549.956500,1824
1549.957000,1814
1549.957500,1808
1549.958000,1803
1549.958500,1820
1549.959000,1806
1549.959500,1800
1549.960000,1810
1549.960500,1815
1549.961000,1800
1549.961500,1825
1549.962000,1817
1549.962500,1811
1549.963000,1803
1549.963500,1818
1549.964000,1809
1549.964500,1804
1549.965000,1817
1549.965500,1818
1549.966000,1804
1549.966500,1819
1549.967000,1817
1549.967500,1810
1549.968000,1800
1549.968500,1813
1549.969000,1798
1549.969500,1795
1549.970000,1805
1549.970500,1809
1549.971000,1797
1549.971500,1814
1549.972000,1810
1549.972500,1803
1549.973000,1795
1549.973500,1809
1549.974000,1800
1549.974500,1794
1549.975000,1810
1549.975500,1813
1549.976000,1799
1549.976500,1800
1549.977000,1812
1549.977500,1808
1549.978000,1803
1549.978500,1820
1549.979000,1815
1549.979500,1807
1549.980000,1821
1549.980500,1827
1549.981000,1809
1549.981500,1813
1549.982000,1822
1549.982500,1813
1549.983000,1804
1549.983500,1821
1549.984000,1808
1549.984500,1796
1549.985000,1803
1549.985500,1810
1549.986000,1796
1549.986500,1801
1549.987000,1810
1549.987500,1797
1549.988000,1793
1549.988500,1807
1549.989000,1801
1549.989500,1794
1549.990000,1806
1549.990500,1811
1549.991000,1796
1549.991500,1790
1549.992000,1805
1549.992500,1793
1549.993000,1792
1549.993500,1809
1549.994000,1806
1549.994500,1797
1549.995000,1808
1549.995500,1816
1549.996000,1800
1549.996500,1816
1549.997000,1811
1549.997500,1802
1549.998000,1798
1549.998500,1812
1549.999000,1806
1549.999500,1800
1550.000000,1809
1550.000500,1816
1550.001000,1800
1550.001500,1806
1550.002000,1820
1550.002500,1815
1550.003000,1810
1550.003500,1824
1550.004000,1815
1550.004500,1806
1550.005000,1815
1550.005500,1820
1550.006000,1802
1550.006500,1803
1550.007000,1812
1550.007500,1798
1550.008000,1791
1550.008500,1805
1550.009000,1793
1550.009500,1785
1550.010000,1798
1550.010500,1801
1550.011000,1789
1550.011500,1790
1550.012000,1803
1550.012500,1790
1550.013000,1791
1550.013500,1812
1550.014000,1806
1550.014500,1803
1550.015000,1814
1550.015500,1820
1550.016000,1805
1550.016500,1812
1550.017000,1818
1550.017500,1812
1550.018000,1808
1550.018500,1820
1550.019000,1813
1550.019500,1808
1550.020000,1819
1550.020500,1821
1550.021000,1808
1550.021500,1818
1550.022000,1818
1550.022500,1811
1550.023000,1805
1550.023500,1820
1550.024000,1805
1550.024500,1796
1550.025000,1807
1550.025500,1810
1550.026000,1796
1550.026500,1797
1550.027000,1803
1550.027500,1796
1550.028000,1789
1550.028500,1806
1550.029000,1795
1550.029500,1790
1550.030000,1804
1550.030500,1809
1550.031000,1793
1550.031500,1798
1550.032000,1807
1550.032500,1797
1550.033000,1798
1550.033500,1817
1550.034000,1808
1550.034500,1804
1550.035000,1814
1550.035500,1818
1550.036000,1805
1550.036500,1807
1550.037000,1816
1550.037500,1803
1550.038000,1800
1550.038500,1810
1550.039000,1801
1550.039500,1797
1550.040000,1807
1550.040500,1810
1550.041000,1797
1550.041500,1796
1550.042000,1813
1550.042500,1799
1550.043000,1794
1550.043500,1808
1550.044000,1800
1550.044500,1794
1550.045000,1808
1550.045500,1813
1550.046000,1800
1550.046500,1811
1550.047000,1813
1550.047500,1802
1550.048000,1796
1550.048500,1810
1550.049000,1799
1550.049500,1797
1550.050000,1808
1550.050500,1815
1550.051000,1803
1550.051500,1826
1550.052000,1814
1550.052500,1808
1550.053000,1800
1550.053500,1819
1550.054000,1807
1550.054500,1799
1550.055000,1812
1550.055500,1816
1550.056000,1802
1550.056500,1821
1550.057000,1812
1550.057500,1804
1550.058000,1797
1550.058500,1811
1550.059000,1797
1550.059500,1793
1550.060000,1805
1550.060500,1814
1550.061000,1801
1550.061500,1796
1550.062000,1812
1550.062500,1808
1550.063000,1802
1550.063500,1817
1550.064000,1819
1550.064500,1800
1550.065000,1813
1550.065500,1818
1550.066000,1803
1550.066500,1798
1550.067000,1814
1550.067500,1811
1550.068000,1801
1550.068500,1812
1550.069000,1813
1550.069500,1794
1550.070000,1806
1550.070500,1815
1550.071000,1806
1550.071500,1806
1550.072000,1820
1550.072500,1810
1550.073000,1805
1550.073500,1815
1550.074000,1817
1550.074500,1797
1550.075000,1802
1550.075500,1808
1550.076000,1794
1550.076500,1790
1550.077000,1805
1550.077500,1793
1550.078000,1789
1550.078500,1805
1550.079000,1809
1550.079500,1797
1550.080000,1811
1550.080500,1814
1550.081000,1802
1550.081500,1797
1550.082000,1815
1550.082500,1804
1550.083000,1803
1550.083500,1816
1550.084000,1814
1550.084500,1796
1550.085000,1810
1550.085500,1812
1550.086000,1799
1550.086500,1796
1550.087000,1810
1550.087500,1801
1550.088000,1793
1550.088500,1808
1550.089000,1810
1550.089500,1793
1550.090000,1805
1550.090500,1811
1550.091000,1799
1550.091500,1796
1550.092000,1811
1550.092500,1804
1550.093000,1799
1550.093500,1811
1550.094000,1800
1550.094500,1802
1550.095000,1815
1550.095500,1821
1550.096000,1810
1550.096500,1823
1550.097000,1819
1550.097500,1811
1550.098000,1803
1550.098500,1819
1550.099000,1804
1550.099500,1804
1550.100000,1810
1550.100500,1819
1550.101000,1799
1550.101500,1803
1550.102000,1811
1550.102500,1803
1550.103000,1791
1550.103500,1806
1550.104000,1798
1550.104500,1790
1550.105000,1803
1550.105500,1814
1550.106000,1798
1550.106500,1803
1550.107000,1809
1550.107500,1801
1550.108000,1796
1550.108500,1811
1550.109000,1803
1550.109500,1797
1550.110000,1812
1550.110500,1818
1550.111000,1804
1550.111500,1812
1550.112000,1814
1550.112500,1805
1550.113000,1804
1550.113500,1820
1550.114000,1805
1550.114500,1799
1550.115000,1809
1550.115500,1809
1550.116000,1791
1550.116500,1802
1550.117000,1806
1550.117500,1794
1550.118000,1793
1550.118500,1810
1550.119000,1801
1550.119500,1794
1550.120000,1808
1550.120500,1814
1550.121000,1795
1550.121500,1803
1550.122000,1809
1550.122500,1801
1550.123000,1797
1550.123500,1815
1550.124000,1803
1550.124500,1799
1550.125000,1812
1550.125500,1816
1550.126000,1794
1550.126500,1806
1550.127000,1809
1550.127500,1799
1550.128000,1799
1550.128500,1817
1550.129000,1805
1550.129500,1802
1550.130000,1816
1550.130500,1822
1550.131000,1804
1550.131500,1819
1550.132000,1820
1550.132500,1812
1550.133000,1804
1550.133500,1827
1550.134000,1817
1550.134500,1810
1550.135000,1820
1550.135500,1823
1550.136000,1802
1550.136500,1811
1550.137000,1813
1550.137500,1798
1550.138000,1789
1550.138500,1804
1550.139000,1789
1550.139500,1780
1550.140000,1788
1550.140500,1796
1550.141000,1781
1550.141500,1797
1550.142000,1805
1550.142500,1797
1550.143000,1788
1550.143500,1805
1550.144000,1796
1550.144500,1793
1550.145000,1807
1550.145500,1816
1550.146000,1800
1550.146500,1812
1550.147000,1821
1550.147500,1808
1550.148000,1805
1550.148500,1821
1550.149000,1810
1550.149500,1803
1550.150000,1814
1550.150500,1818
1550.151000,1799
1550.151500,1807
1550.152000,1814
1550.152500,1796
1550.153000,1792
1550.153500,1807
1550.154000,1797
1550.154500,1794
1550.155000,1810
1550.155500,1796
1550.156000,1800
1550.156500,1809
1550.157000,1810
1550.157500,1801
1550.158000,1821
1550.158500,1814
1550.159000,1801
1550.159500,1797
1550.160000,1812
1550.160500,1806
1550.161000,1799
1550.161500,1812
1550.162000,1816
1550.162500,1802
1550.163000,1813
1550.163500,1817
1550.164000,1804
1550.164500,1798
1550.165000,1814
1550.165500,1806
1550.166000,1799
1550.166500,1810
1550.167000,1820
1550.167500,1804
1550.168000,1809
1550.168500,1820
1550.169000,1805
1550.169500,1802
1550.170000,1821
1550.170500,1815
1550.171000,1810
1550.171500,1823
1550.172000,1826
1550.172500,1808
1550.173000,1818
1550.173500,1820
1550.174000,1803
1550.174500,1796
1550.175000,1814
1550.175500,1806
1550.176000,1798
1550.176500,1807
1550.177000,1805
1550.177500,1791
1550.178000,1796
1550.178500,1797
1550.179000,1785
1550.179500,1781
1550.180000,1796
1550.180500,1789
1550.181000,1784
1550.181500,1799
1550.182000,1805
1550.182500,1794
1550.183000,1805
1550.183500,1814
1550.184000,1801
1550.184500,1797
1550.185000,1816
1550.185500,1806
1550.186000,1801
1550.186500,1816
1550.187000,1821
1550.187500,1802
1550.188000,1813
1550.188500,1814
1550.189000,1800
1550.189500,1794
1550.190000,1812
1550.190500,1804
1550.191000,1799
1550.191500,1812
1550.192000,1820
1550.192500,1800
1550.193000,1816
1550.193500,1823
1550.194000,1810
1550.194500,1803
1550.195000,1818
1550.195500,1810
1550.196000,1805
1550.196500,1819
1550.197000,1827
1550.197500,1805
1550.198000,1817
1550.198500,1820
1550.199000,1804
1550.199500,1802
1550.200000,1816
1550.200500,1802
1550.201000,1797
1550.201500,1808
1550.202000,1801
1550.202500,1793
1550.203000,1806
1550.203500,1808
1550.204000,1782
1550.204500,1794
1550.205000,1795
1550.205500,1788
1550.206000,1785
1550.206500,1802
1550.207000,1798
1550.207500,1799
1550.208000,1813
1550.208500,1818
1550.209000,1802
1550.209500,1815
1550.210000,1812
1550.210500,1805
1550.211000,1798
1550.211500,1811
1550.212000,1804
1550.212500,1799
1550.213000,1814
1550.213500,1817
1550.214000,1798
1550.214500,1820
1550.215000,1810
1550.215500,1800
1550.216000,1797
1550.216500,1810
1550.217000,1800
1550.217500,1798
1550.218000,1814
1550.218500,1820
1550.219000,1802
1550.219500,1817
1550.220000,1815
1550.220500,1802
1550.221000,1797
1550.221500,1813
1550.222000,1805
1550.222500,1799
1550.223000,1811
1550.223500,1818
1550.224000,1805
1550.224500,1808
1550.225000,1820
1550.225500,1811
1550.226000,1808
1550.226500,1823
1550.227000,1816
1550.227500,1809
1550.228000,1818
1550.228500,1822
1550.229000,1802
1550.229500,1803
1550.230000,1811
1550.230500,1795
1550.231000,1786
1550.231500,1799
1550.232000,1795
1550.232500,1790
1550.233000,1804
1550.233500,1809
1550.234000,1792
1550.234500,1799
1550.235000,1809
1550.235500,1797
1550.236000,1792
1550.236500,1812
1550.237000,1807
1550.237500,1804
1550.238000,1814
1550.238500,1816
1550.239000,1798
1550.239500,1805
1550.240000,1808
1550.240500,1797
1550.241000,1796
1550.241500,1816
1550.242000,1811
1550.242500,1804
1550.243000,1814
1550.243500,1819
1550.244000,1803
1550.244500,1803
1550.245000,1815
1550.245500,1802
1550.246000,1798
1550.246500,1816
1550.247000,1812
1550.247500,1806
1550.248000,1816
1550.248500,1819
1550.249000,1803
1550.249500,1814
1550.250000,1820
1550.250500,1806
1550.251000,1801
1550.251500,1816
1550.252000,1807
1550.252500,1801
1550.253000,1809
1550.253500,1815
1550.254000,1800
1550.254500,1799
1550.255000,1806
1550.255500,1791
1550.256000,1788
1550.256500,1806
1550.257000,1799
1550.257500,1797
1550.258000,1804
1550.258500,1808
1550.259000,1792
1550.259500,1797
1550.260000,1812
1550.260500,1803
1550.261000,1795
1550.261500,1813
1550.262000,1809
1550.262500,1807
1550.263000,1814
1550.263500,1819
1550.264000,1806
1550.264500,1808
1550.265000,1819
1550.265500,1809
1550.266000,1799
1550.266500,1814
1550.267000,1807
1550.267500,1796
1550.268000,1808
1550.268500,1813
1550.269000,1793
1550.269500,1793
1550.270000,1805
1550.270500,1792
1550.271000,1786
1550.271500,1800
1550.272000,1796
1550.272500,1793
1550.273000,1802
1550.273500,1808
1550.274000,1792
1550.274500,1797
1550.275000,1809
1550.275500,1798
1550.276000,1797
1550.276500,1814
1550.277000,1806
1550.277500,1802
1550.278000,1813
1550.278500,1819
1550.279000,1801
1550.279500,1808
1550.280000,1814
1550.280500,1804
1550.281000,1800
1550.281500,1817
1550.282000,1807
1550.282500,1805
1550.283000,1820
1550.283500,1824
1550.284000,1806
1550.284500,1807
1550.285000,1822
1550.285500,1812
1550.286000,1804
1550.286500,1819
1550.287000,1809
1550.287500,1807
1550.288000,1817
1550.288500,1821
1550.289000,1801
1550.289500,1805
1550.290000,1812
1550.290500,1798
1550.291000,1790
1550.291500,1805
1550.292000,1798
1550.292500,1794
1550.293000,1807
1550.293500,1813
1550.294000,1797
1550.294500,1803
1550.295000,1806
1550.295500,1791
1550.296000,1790
1550.296500,1807
1550.297000,1800
1550.297500,1793
1550.298000,1809
1550.298500,1815
1550.299000,1797
1550.299500,1804
1550.300000,1812
1550.300500,1801
1550.301000,1800
1550.301500,1817
1550.302000,1808
1550.302500,1808
1550.303000,1819
1550.303500,1825
1550.304000,1799
1550.304500,1809
1550.305000,1816
1550.305500,1805
1550.306000,1799
1550.306500,1815
1550.307000,1805
1550.307500,1794
1550.308000,1810
1550.308500,1817
1550.309000,1801
1550.309500,1810
1550.310000,1817
1550.310500,1805
1550.311000,1800
1550.311500,1813
1550.312000,1801
1550.312500,1796
1550.313000,1808
1550.313500,1814
1550.314000,1802
1550.314500,1810
1550.315000,1813
1550.315500,1799
1550.316000,1794
1550.316500,1808
1550.317000,1799
1550.317500,1791
1550.318000,1807
1550.318500,1812
1550.319000,1797
1550.319500,1813
1550.320000,1817
1550.320500,1808
1550.321000,1800
1550.321500,1817
1550.322000,1809
1550.322500,1802
1550.323000,1812
1550.323500,1819
1550.324000,1796
1550.324500,1805
1550.325000,1811
1550.325500,1796
1550.326000,1788
1550.326500,1801
1550.327000,1789
1550.327500,1789
1550.328000,1803
1550.328500,1811
1550.329000,1793
1550.329500,1805
1550.330000,1815
1550.330500,1800
1550.331000,1796
1550.331500,1814
1550.332000,1808
1550.332500,1813
1550.333000,1827
1550.333500,1830
1550.334000,1808
1550.334500,1819
1550.335000,1821
1550.335500,1810
1550.336000,1805
1550.336500,1816
1550.337000,1809
1550.337500,1805
1550.338000,1814
1550.338500,1817
1550.339000,1796
1550.339500,1804
1550.340000,1806
1550.340500,1793
1550.341000,1787
1550.341500,1806
1550.342000,1797
1550.342500,1791
1550.343000,1810
1550.343500,1815
1550.344000,1797
1550.344500,1805
1550.345000,1809
1550.345500,1798
1550.346000,1795
1550.346500,1813
1550.347000,1801
1550.347500,1798
1550.348000,1812
1550.348500,1822
1550.349000,1806
1550.349500,1814
1550.350000,1825
1550.350500,1810
1550.351000,1804
1550.351500,1819
1550.352000,1809
1550.352500,1806
1550.353000,1821
1550.353500,1823
1550.354000,1800
1550.354500,1810
1550.355000,1813
1550.355500,1800
1550.356000,1796
1550.356500,1809
1550.357000,1796
1550.357500,1796
1550.358000,1806
1550.358500,1810
1550.359000,1793
1550.359500,1806
1550.360000,1811
1550.360500,1801
1550.361000,1794
1550.361500,1811
1550.362000,1802
1550.362500,1798
1550.363000,1809
1550.363500,1813
1550.364000,1795
1550.364500,1805
1550.365000,1811
1550.365500,1800
1550.366000,1798
1550.366500,1817
1550.367000,1811
1550.367500,1805
1550.368000,1821
1550.368500,1826
1550.369000,1806
1550.369500,1818
1550.370000,1823
1550.370500,1810
1550.371000,1802
1550.371500,1815
1550.372000,1805
1550.372500,1794
1550.373000,1802
1550.373500,1803
1550.374000,1782
1550.374500,1791
1550.375000,1798
1550.375500,1792
1550.376000,1790
1550.376500,1808
1550.377000,1799
1550.377500,1794
1550.378000,1809
1550.378500,1816
1550.379000,1797
1550.379500,1808
1550.380000,1809
1550.380500,1797
1550.381000,1794
1550.381500,1813
1550.382000,1801
1550.382500,1801
1550.383000,1809
1550.383500,1814
1550.384000,1797
1550.384500,1809
1550.385000,1813
1550.385500,1803
1550.386000,1798
1550.386500,1816
1550.387000,1806
1550.387500,1803
1550.388000,1815
1550.388500,1819
1550.389000,1797
1550.389500,1809
1550.390000,1812
1550.390500,1798
1550.391000,1794
1550.391500,1809
1550.392000,1805
1550.392500,1801
1550.393000,1818
1550.393500,1824
1550.394000,1805
1550.394500,1815
1550.395000,1818
1550.395500,1806
1550.396000,1801
1550.396500,1816
1550.397000,1808
1550.397500,1801
1550.398000,1814
1550.398500,1818
1550.399000,1796
1550.399500,1809
1550.400000,1810
1550.400500,1794
1550.401000,1787
1550.401500,1804
1550.402000,1798
1550.402500,1797
1550.403000,1806
1550.403500,1814
1550.404000,1797
1550.404500,1812
1550.405000,1817
1550.405500,1808
1550.406000,1803
1550.406500,1818
1550.407000,1805
1550.407500,1801
1550.408000,1816
1550.408500,1819
1550.409000,1800
1550.409500,1812
1550.410000,1813
1550.410500,1799
1550.411000,1793
1550.411500,1809
1550.412000,1801
1550.412500,1799
1550.413000,1814
1550.413500,1818
1550.414000,1801
1550.414500,1806
1550.415000,1809
1550.415500,1796
1550.416000,1788
1550.416500,1804
1550.417000,1793
1550.417500,1792
1550.418000,1802
1550.418500,1812
1550.419000,1793
1550.419500,1806
1550.420000,1816
1550.420500,1809
1550.421000,1803
1550.421500,1819
1550.422000,1808
1550.422500,1799
1550.423000,1813
1550.423500,1821
1550.424000,1802
1550.424500,1811
1550.425000,1811
1550.425500,1800
1550.426000,1790
1550.426500,1808
1550.427000,1799
1550.427500,1790
1550.428000,1806
1550.428500,1814
1550.429000,1796
1550.429500,1801
1550.430000,1816
1550.430500,1805
1550.431000,1802
1550.431500,1815
1550.432000,1810
1550.432500,1800
1550.433000,1813
1550.433500,1819
1550.434000,1805
1550.434500,1821
1550.435000,1819
1550.435500,1804
1550.436000,1798
1550.436500,1814
1550.437000,1804
1550.437500,1804
1550.438000,1812
1550.438500,1817
1550.439000,1803
1550.439500,1815
1550.440000,1812
1550.440500,1800
1550.441000,1795
1550.441500,1807
1550.442000,1800
1550.442500,1798
1550.443000,1810
1550.443500,1816
1550.444000,1800
1550.444500,1815
1550.445000,1809
1550.445500,1797
1550.446000,1794
1550.446500,1806
1550.447000,1795
1550.447500,1801
1550.448000,1810
1550.448500,1819
1550.449000,1802
1550.449500,1815
1550.450000,1813
1550.450500,1805
1550.451000,1798
1550.451500,1813
1550.452000,1798
1550.452500,1799
1550.453000,1812
1550.453500,1815
1550.454000,1799
1550.454500,1798
1550.455000,1812
1550.455500,1803
1550.456000,1803
1550.456500,1821
1550.457000,1807
1550.457500,1810
1550.458000,1819
1550.458500,1825
1550.459000,1808
1550.459500,1812
1550.460000,1814
1550.460500,1804
1550.461000,1800
1550.461500,1814
1550.462000,1801
1550.462500,1803
1550.463000,1812
1550.463500,1818
1550.464000,1806
1550.464500,1826
1550.465000,1824
1550.465500,1811
1550.466000,1804
1550.466500,1813
1550.467000,1798
1550.467500,1795
1550.468000,1797
1550.468500,1801
1550.469000,1780
1550.469500,1800
1550.470000,1788
1550.470500,1778
1550.471000,1773
1550.471500,1789
1550.472000,1786
1550.472500,1788
1550.473000,1806
1550.473500,1813
1550.474000,1797
1550.474500,1808
1550.475000,1812
1550.475500,1803
1550.476000,1800
1550.476500,1815
1550.477000,1801
1550.477500,1804
1550.478000,1808
1550.478500,1817
1550.479000,1803
1550.479500,1819
1550.480000,1814
1550.480500,1806
1550.481000,1803
1550.481500,1819
1550.482000,1813
1550.482500,1808
1550.483000,1820
1550.483500,1820
1550.484000,1803
1550.484500,1810
1550.485000,1808
1550.485500,1800
1550.486000,1796
1550.486500,1807
1550.487000,1811
1550.487500,1795
1550.488000,1808
1550.488500,1812
1550.489000,1798
1550.489500,1792
1550.490000,1808
1550.490500,1798
1550.491000,1791
1550.491500,1806
1550.492000,1812
1550.492500,1795
1550.493000,1808
1550.493500,1818
1550.494000,1802
1550.494500,1800
1550.495000,1815
1550.495500,1805
1550.496000,1802
1550.496500,1817
1550.497000,1822
1550.497500,1804
1550.498000,1817
1550.498500,1821
1550.499000,1805
1550.499500,1802
1550.500000,1815
1550.500500,1802
1550.501000,1798
1550.501500,1807
1550.502000,1814
1550.502500,1790
1550.503000,1806
1550.503500,1809
1550.504000,1794
1550.504500,1792
1550.505000,1807
1550.505500,1801
1550.506000,1798
1550.506500,1812
1550.507000,1818
1550.507500,1805
1550.508000,1815
1550.508500,1819
1550.509000,1804
1550.509500,1798
1550.510000,1817
1550.510500,1805
1550.511000,1796
1550.511500,1809
1550.512000,1791
1550.512500,1795
1550.513000,1804
1550.513500,1814
1550.514000,1800
1550.514500,1803
1550.515000,1815
1550.515500,1807
1550.516000,1801
1550.516500,1816
1550.517000,1801
1550.517500,1798
1550.518000,1807
1550.518500,1814
1550.519000,1798
1550.519500,1794
1550.520000,1813
1550.520500,1801
1550.521000,1795
1550.521500,1809
1550.522000,1797
1550.522500,1798
1550.523000,1808
1550.523500,1814
1550.524000,1797
1550.524500,1809
1550.525000,1807
1550.525500,1796
1550.526000,1793
1550.526500,1809
1550.527000,1797
1550.527500,1798
1550.528000,1808
1550.528500,1812
1550.529000,1800
1550.529500,1808
1550.530000,1812
1550.530500,1800
1550.531000,1799
1550.531500,1811
1550.532000,1801
1550.532500,1807
1550.533000,1821
1550.533500,1825
1550.534000,1811
1550.534500,1822
1550.535000,1823
1550.535500,1813
1550.536000,1807
1550.536500,1822
1550.537000,1810
1550.537500,1807
1550.538000,1813
1550.538500,1816
1550.539000,1798
1550.539500,1815
1550.540000,1807
1550.540500,1794
1550.541000,1790
1550.541500,1804
1550.542000,1792
1550.542500,1795
1550.543000,1804
1550.543500,1810
1550.544000,1795
1550.544500,1818
1550.545000,1810
1550.545500,1796
1550.546000,1790
1550.546500,1804
1550.547000,1795
1550.547500,1795
1550.548000,1809
1550.548500,1815
1550.549000,1801
1550.549500,1819
1550.550000,1811
1550.550500,1800
1550.551000,1796
1550.551500,1813
1550.552000,1801
1550.552500,1799
1550.553000,1812
1550.553500,1819
1550.554000,1805
1550.554500,1819
1550.555000,1818
1550.555500,1807
1550.556000,1801
1550.556500,1818
1550.557000,1802
1550.557500,1804
1550.558000,1810
1550.558500,1816
1550.559000,1802
1550.559500,1800
1550.560000,1820
1550.560500,1812
1550.561000,1808
1550.561500,1821
1550.562000,1825
1550.562500,1805
1550.563000,1819
1550.563500,1824
1550.564000,1803
1550.564500,1793
1550.565000,1811
1550.565500,1798
1550.566000,1789
1550.566500,1797
1550.567000,1798
1550.567500,1784
1550.568000,1796
1550.568500,1807
1550.569000,1791
1550.569500,1786
1550.570000,1805
1550.570500,1795
1550.571000,1793
1550.571500,1808
1550.572000,1814
1550.572500,1795
1550.573000,1811
1550.573500,1814
1550.574000,1798
1550.574500,1794
1550.575000,1813
1550.575500,1805
1550.576000,1802
1550.576500,1816
1550.577000,1820
1550.577500,1807
1550.578000,1819
1550.578500,1822
1550.579000,1809
1550.579500,1806
1550.580000,1819
1550.580500,1809
1550.581000,1804
1550.581500,1815
1550.582000,1819
1550.582500,1804
1550.583000,1818
1550.583500,1827
1550.584000,1811
1550.584500,1802
1550.585000,1817
1550.585500,1803
1550.586000,1798
1550.586500,1810
1550.587000,1814
1550.587500,1799
1550.588000,1805
1550.588500,1807
1550.589000,1788
1550.589500,1780
1550.590000,1799
1550.590500,1789
1550.591000,1782
1550.591500,1795
1550.592000,1801
1550.592500,1783
1550.593000,1802
1550.593500,1808
1550.594000,1791
1550.594500,1789
1550.595000,1806
1550.595500,1798
1550.596000,1795
1550.596500,1811
1550.597000,1815
1550.597500,1797
1550.598000,1814
1550.598500,1819
1550.599000,1805
1550.599500,1799
1550.600000,1814
1550.600500,1806
1550.601000,1799
1550.601500,1812
1550.602000,1817
1550.602500,1801
1550.603000,1812
1550.603500,1816
1550.604000,1802
1550.604500,1797
1550.605000,1813
1550.605500,1803
1550.606000,1801
1550.606500,1814
1550.607000,1822
1550.607500,1802
1550.608000,1818
1550.608500,1820
1550.609000,1806
1550.609500,1798
1550.610000,1815
1550.610500,1802
1550.611000,1796
1550.611500,1811
1550.612000,1813
1550.612500,1796
1550.613000,1808
1550.613500,1817
1550.614000,1804
1550.614500,1802
1550.615000,1817
1550.615500,1808
1550.616000,1801
1550.616500,1814
1550.617000,1817
1550.617500,1800
1550.618000,1808
1550.618500,1811
1550.619000,1797
1550.619500,1793
1550.620000,1811
1550.620500,1797
1550.621000,1792
1550.621500,1814
1550.622000,1822
1550.622500,1811
1550.623000,1818
1550.623500,1826
1550.624000,1812
1550.624500,1806
1550.625000,1822
1550.625500,1812
1550.626000,1802
1550.626500,1812
1550.627000,1814
1550.627500,1797
1550.628000,1804
1550.628500,1804
1550.629000,1787
1550.629500,1783
1550.630000,1801
1550.630500,1792
1550.631000,1786
1550.631500,1804
1550.632000,1810
1550.632500,1792
1550.633000,1807
1550.633500,1816
1550.634000,1798
1550.634500,1796
1550.635000,1813
1550.635500,1804
1550.636000,1798
1550.636500,1814
1550.637000,1822
1550.637500,1814
1550.638000,1819
1550.638500,1824
1550.639000,1810
1550.639500,1803
1550.640000,1819
1550.640500,1808
1550.641000,1800
1550.641500,1811
1550.642000,1815
1550.642500,1804
1550.643000,1807
1550.643500,1813
1550.644000,1795
1550.644500,1787
1550.645000,1800
1550.645500,1793
1550.646000,1785
1550.646500,1800
1550.647000,1806
1550.647500,1796
1550.648000,1809
1550.648500,1812
1550.649000,1800
1550.649500,1795
1550.650000,1813
1550.650500,1807
1550.651000,1801
1550.651500,1813
1550.652000,1818
1550.652500,1802
1550.653000,1814
1550.653500,1819
1550.654000,1806
1550.654500,1799
1550.655000,1814
1550.655500,1808
1550.656000,1800
1550.656500,1816
1550.657000,1819
1550.657500,1804
1550.658000,1813
1550.658500,1815
1550.659000,1799
1550.659500,1796
1550.660000,1811
1550.660500,1805
1550.661000,1801
1550.661500,1815
1550.662000,1821
1550.662500,1810
1550.663000,1821
1550.663500,1825
1550.664000,1806
1550.664500,1800
1550.665000,1814
1550.665500,1805
1550.666000,1796
1550.666500,1801
1550.667000,1801
1550.667500,1785
1550.668000,1785
1550.668500,1799
1550.669000,1783
1550.669500,1785
1550.670000,1803
1550.670500,1798
1550.671000,1794
1550.671500,1805
1550.672000,1811
1550.672500,1797
1550.673000,1803
1550.673500,1813
1550.674000,1804
1550.674500,1800
1550.675000,1813
1550.675500,1808
1550.676000,1798
1550.676500,1811
1550.677000,1820
1550.677500,1810
1550.678000,1816
1550.678500,1823
1550.679000,1811
1550.679500,1805
1550.680000,1821
1550.680500,1812
1550.681000,1805
1550.681500,1816
1550.682000,1819
1550.682500,1809
1550.683000,1815
1550.683500,1816
1550.684000,1800
1550.684500,1794
1550.685000,1809
1550.685500,1804
1550.686000,1801
1550.686500,1811
1550.687000,1816
1550.687500,1803
1550.688000,1811
1550.688500,1815
1550.689000,1800
1550.689500,1796
1550.690000,1812
1550.690500,1806
1550.691000,1800
1550.691500,1812
1550.692000,1815
1550.692500,1797
1550.693000,1809
1550.693500,1809
1550.694000,1796
1550.694500,1789
1550.695000,1802
1550.695500,1792
1550.696000,1784
1550.696500,1798
1550.697000,1802
1550.697500,1788
1550.698000,1801
1550.698500,1808
1550.699000,1795
1550.699500,1792
1550.700000,1810
1550.700500,1805
1550.701000,1800
1550.701500,1813
1550.702000,1817
1550.702500,1806
1550.703000,1815
1550.703500,1818
1550.704000,1802
1550.704500,1796
1550.705000,1814
1550.705500,1808
1550.706000,1800
1550.706500,1809
1550.707000,1814
1550.707500,1799
1550.708000,1799
1550.708500,1813
1550.709000,1802
1550.709500,1799
1550.710000,1817
1550.710500,1814
1550.711000,1811
1550.711500,1824
1550.712000,1832
1550.712500,1822
1550.713000,1825
1550.713500,1824
1550.714000,1811
1550.714500,1801
1550.715000,1811
1550.715500,1808
1550.716000,1802
1550.716500,1811
1550.717000,1812
1550.717500,1789
1550.718000,1789
1550.718500,1799
1550.719000,1791
1550.719500,1782
1550.720000,1799
1550.720500,1792
1550.721000,1788
1550.721500,1801
1550.722000,1809
1550.722500,1800
1550.723000,1802
1550.723500,1815
1550.724000,1800
1550.724500,1798
1550.725000,1811
1550.725500,1807
1550.726000,1803
1550.726500,1812
1550.727000,1817
1550.727500,1800
1550.728000,1800
1550.728500,1813
1550.729000,1797
1550.729500,1794
1550.730000,1813
1550.730500,1806
1550.731000,1800
1550.731500,1812
1550.732000,1818
1550.732500,1811
1550.733000,1814
1550.733500,1822
1550.734000,1809
1550.734500,1802
1550.735000,1814
1550.735500,1804
1550.736000,1797
1550.736500,1806
1550.737000,1809
1550.737500,1798
1550.738000,1812
1550.738500,1811
1550.739000,1796
1550.739500,1790
1550.740000,1807
1550.740500,1799
1550.741000,1795
1550.741500,1807
1550.742000,1815
1550.742500,1800
1550.743000,1813
1550.743500,1816
1550.744000,1802
1550.744500,1799
1550.745000,1815
1550.745500,1809
1550.746000,1801
1550.746500,1814
1550.747000,1819
1550.747500,1804
1550.748000,1815
1550.748500,1817
1550.749000,1802
1550.749500,1797
1550.750000,1813
1550.750500,1803
1550.751000,1797
1550.751500,1809
1550.752000,1812
1550.752500,1801
1550.753000,1810
1550.753500,1812
1550.754000,1798
1550.754500,1793
1550.755000,1810
1550.755500,1803
1550.756000,1797
1550.756500,1811
1550.757000,1817
1550.757500,1803
1550.758000,1809
1550.758500,1812
1550.759000,1799
1550.759500,1795
1550.760000,1814
1550.760500,1805
1550.761000,1799
1550.761500,1813
1550.762000,1820
1550.762500,1806
1550.763000,1807
1550.763500,1816
1550.764000,1804
1550.764500,1798
1550.765000,1812
1550.765500,1802
1550.766000,1797
1550.766500,1807
1550.767000,1816
1550.767500,1811
1550.768000,1825
1550.768500,1825
1550.769000,1812
1550.769500,1805
1550.770000,1821
1550.770500,1811
1550.771000,1805
1550.771500,1812
1550.772000,1816
1550.772500,1806
1550.773000,1818
1550.773500,1811
1550.774000,1795
1550.774500,1788
1550.775000,1802
1550.775500,1788
1550.776000,1789
1550.776500,1802
1550.777000,1806
1550.777500,1799
1550.778000,1808
1550.778500,1813
1550.779000,1799
1550.779500,1795
1550.780000,1810
1550.780500,1797
1550.781000,1796
1550.781500,1808
1550.782000,1813
1550.782500,1801
1550.783000,1793
1550.783500,1810
1550.784000,1795
1550.784500,1790
1550.785000,1808
1550.785500,1802
1550.786000,1800
1550.786500,1812
1550.787000,1816
1550.787500,1808
1550.788000,1799
1550.788500,1817
1550.789000,1802
1550.789500,1798
1550.790000,1810
1550.790500,1815
1550.791000,1791
1550.791500,1802
1550.792000,1809
1550.792500,1795
1550.793000,1791
1550.793500,1812
1550.794000,1802
1550.794500,1798
1550.795000,1808
1550.795500,1818
1550.796000,1807
1550.796500,1816
1550.797000,1824
1550.797500,1813
1550.798000,1810
1550.798500,1826
1550.799000,1813
1550.799500,1805
1550.800000,1814
1550.800500,1817
1550.801000,1796
1550.801500,1807
1550.802000,1809
1550.802500,1797
1550.803000,1790
1550.803500,1804
1550.804000,1794
1550.804500,1787
1550.805000,1802
1550.805500,1809
1550.806000,1795
1550.806500,1803
1550.807000,1809
1550.807500,1801
1550.808000,1801
1550.808500,1821
1550.809000,1810
1550.809500,1803
1550.810000,1817
1550.810500,1820
1550.811000,1805
1550.811500,1806
1550.812000,1816
1550.812500,1803
1550.813000,1796
1550.813500,1812
1550.814000,1802
1550.814500,1794
1550.815000,1805
1550.815500,1806
1550.816000,1790
1550.816500,1794
1550.817000,1810
1550.817500,1801
1550.818000,1797
1550.818500,1811
1550.819000,1804
1550.819500,1799
1550.820000,1811
1550.820500,1819
1550.821000,1804
1550.821500,1822
1550.822000,1814
1550.822500,1801
1550.823000,1799
1550.823500,1810
1550.824000,1803
1550.824500,1798
1550.825000,1809
1550.825500,1812
1550.826000,1799
1550.826500,1802
1550.827000,1813
1550.827500,1803
1550.828000,1799
1550.828500,1816
1550.829000,1802
1550.829500,1799
1550.830000,1809
1550.830500,1815
1550.831000,1801
1550.831500,1795
1550.832000,1813
1550.832500,1805
1550.833000,1796
1550.833500,1810
1550.834000,1796
1550.834500,1794
1550.835000,1803
1550.835500,1810
1550.836000,1797
1550.836500,1794
1550.837000,1810
1550.837500,1803
1550.838000,1799
1550.838500,1813
1550.839000,1800
1550.839500,1797
1550.840000,1808
1550.840500,1817
1550.841000,1802
1550.841500,1817
1550.842000,1817
1550.842500,1805
1550.843000,1800
1550.843500,1814
1550.844000,1796
1550.844500,1800
1550.845000,1810
1550.845500,1812
1550.846000,1800
1550.846500,1796
1550.847000,1814
1550.847500,1798
1550.848000,1796
1550.848500,1813
1550.849000,1814
1550.849500,1802
1550.850000,1815
1550.850500,1821
1550.851000,1809
1550.851500,1800
1550.852000,1821
1550.852500,1811
1550.853000,1804
1550.853500,1818
1550.854000,1803
1550.854500,1798
1550.855000,1805
1550.855500,1806
1550.856000,1791
1550.856500,1789
1550.857000,1807
1550.857500,1800
1550.858000,1794
1550.858500,1809
1550.859000,1812
1550.859500,1792
1550.860000,1809
1550.860500,1811
1550.861000,1798
1550.861500,1791
1550.862000,1809
1550.862500,1802
1550.863000,1799
1550.863500,1810
1550.864000,1811
1550.864500,1793
1550.865000,1807
1550.865500,1812
1550.866000,1800
1550.866500,1799
1550.867000,1816
1550.867500,1811
1550.868000,1806
1550.868500,1822
1550.869000,1826
1550.869500,1809
1550.870000,1820
1550.870500,1823
1550.871000,1811
1550.871500,1805
1550.872000,1822
1550.872500,1811
1550.873000,1805
1550.873500,1816
1550.874000,1816
1550.874500,1797
1550.875000,1807
1550.875500,1809
1550.876000,1793
1550.876500,1786
1550.877000,1802
1550.877500,1792
1550.878000,1788
1550.878500,1799
1550.879000,1803
1550.879500,1789
1550.880000,1798
1550.880500,1808
1550.881000,1794
1550.881500,1789
1550.882000,1806
1550.882500,1800
1550.883000,1797
1550.883500,1809
1550.884000,1814
1550.884500,1796
1550.885000,1808
1550.885500,1814
1550.886000,1800
1550.886500,1795
1550.887000,1807
1550.887500,1806
1550.888000,1799
1550.888500,1811
1550.889000,1817
1550.889500,1797
1550.890000,1805
1550.890500,1817
1550.891000,1807
1550.891500,1803
1550.892000,1822
1550.892500,1813
1550.893000,1806
1550.893500,1819
1550.894000,1821
1550.894500,1806
1550.895000,1804
1550.895500,1814
1550.896000,1800
1550.896500,1796
1550.897000,1810
1550.897500,1806
1550.898000,1797
1550.898500,1811
1550.899000,1811
1550.899500,1797
1550.900000,1800
1550.900500,1813
1550.901000,1802
1550.901500,1800
1550.902000,1815
1550.902500,1812
1550.903000,1804
1550.903500,1815
1550.904000,1816
1550.904500,1802
1550.905000,1809
1550.905500,1812
1550.906000,1797
1550.906500,1791
1550.907000,1807
1550.907500,1803
1550.908000,1797
1550.908500,1806
1550.909000,1809
1550.909500,1791
1550.910000,1796
1550.910500,1805
1550.911000,1795
1550.911500,1791
1550.912000,1812
1550.912500,1808
1550.913000,1801
1550.913500,1812
1550.914000,1815
1550.914500,1801
1550.915000,1801
1550.915500,1813
1550.916000,1801
1550.916500,1798
1550.917000,1816
1550.917500,1815
1550.918000,1807
1550.918500,1819
1550.919000,1822
1550.919500,1809
1550.920000,1829
1550.920500,1823
1550.921000,1815
1550.921500,1811
1550.922000,1825
1550.922500,1817
1550.923000,1809
1550.923500,1819
1550.924000,1818
1550.924500,1797
1550.925000,1809
1550.925500,1805
1550.926000,1796
1550.926500,1789
1550.927000,1803
1550.927500,1787
1550.928000,1788
1550.928500,1801
1550.929000,1805
1550.929500,1794
1550.930000,1804
1550.930500,1803
1550.931000,1794
1550.931500,1789
1550.932000,1801
1550.932500,1795
1550.933000,1793
1550.933500,1806
1550.934000,1810
1550.934500,1795
1550.935000,1791
1550.935500,1809
1550.936000,1798
1550.936500,1797
1550.937000,1811
1550.937500,1799
1550.938000,1802
1550.938500,1814
1550.939000,1820
1550.939500,1805
1550.940000,1821
1550.940500,1818
1550.941000,1810
1550.941500,1803
1550.942000,1818
1550.942500,1808
1550.943000,1803
1550.943500,1816
1550.944000,1818
1550.944500,1803
1550.945000,1817
1550.945500,1813
1550.946000,1799
1550.946500,1790
1550.947000,1807
1550.947500,1802
1550.948000,1795
1550.948500,1808
1550.949000,1811
1550.949500,1799
1550.950000,1813
1550.950500,1810
1550.951000,1801
1550.951500,1796
1550.952000,1810
1550.952500,1803
1550.953000,1797
1550.953500,1810
1550.954000,1817
1550.954500,1803
1550.955000,1828
1550.955500,1820
1550.956000,1808
1550.956500,1802
1550.957000,1819
1550.957500,1806
1550.958000,1803
1550.958500,1817
1550.959000,1818
1550.959500,1805
1550.960000,1826
1550.960500,1810
1550.961000,1798
1550.961500,1787
1550.962000,1804
1550.962500,1800
1550.963000,1799
1550.963500,1814
1550.964000,1818
1550.964500,1802
1550.965000,1819
1550.965500,1809
1550.966000,1797
1550.966500,1793
1550.967000,1811
1550.967500,1806
1550.968000,1801
1550.968500,1812
1550.969000,1810
1550.969500,1796
1550.970000,1798
1550.970500,1807
1550.971000,1794
1550.971500,1793
1550.972000,1807
1550.972500,1808
1550.973000,1797
1550.973500,1809
1550.974000,1817
1550.974500,1804
1550.975000,1805
1550.975500,1821
1550.976000,1809
1550.976500,1805
1550.977000,1825
1550.977500,1815
1550.978000,1811
1550.978500,1820
1550.979000,1821
1550.979500,1803
1550.980000,1808
1550.980500,1810
1550.981000,1794
1550.981500,1785
1550.982000,1801
1550.982500,1799
1550.983000,1790
1550.983500,1802
1550.984000,1806
1550.984500,1789
1550.985000,1797
1550.985500,1809
1550.986000,1803
1550.986500,1799
1550.987000,1818
1550.987500,1812
1550.988000,1805
1550.988500,1818
1550.989000,1820
1550.989500,1805
1550.990000,1818
1550.990500,1813
1550.991000,1801
1550.991500,1793
1550.992000,1805
1550.992500,1793
1550.993000,1788
1550.993500,1799
1550.994000,1804
1550.994500,1791
1550.995000,1809
1550.995500,1802
1550.996000,1796
1550.996500,1793
1550.997000,1808
1550.997500,1807
1550.998000,1800
1550.998500,1811
1550.999000,1815
1550.999500,1803
1551.000000,1812
1551.000500,1816
1551.001000,1805
1551.001500,1799
1551.002000,1813
1551.002500,1804
1551.003000,1802
1551.003500,1814
1551.004000,1819
1551.004500,1803
1551.005000,1799
1551.005500,1813
1551.006000,1803
1551.006500,1798
1551.007000,1812
1551.007500,1815
1551.008000,1798
1551.008500,1808
1551.009000,1813
1551.009500,1801
1551.010000,1794
1551.010500,1814
1551.011000,1806
1551.011500,1801
1551.012000,1815
1551.012500,1825
1551.013000,1798
1551.013500,1812
1551.014000,1817
1551.014500,1801
1551.015000,1793
1551.015500,1808
1551.016000,1799
1551.016500,1791
1551.017000,1805
1551.017500,1812
1551.018000,1796
1551.018500,1809
1551.019000,1813
1551.019500,1798
1551.020000,1796
1551.020500,1812
1551.021000,1804
1551.021500,1799
1551.022000,1812
1551.022500,1819
1551.023000,1800
1551.023500,1814
1551.024000,1814
1551.024500,1802
1551.025000,1797
1551.025500,1818
1551.026000,1809
1551.026500,1805
1551.027000,1819
1551.027500,1820
1551.028000,1805
1551.028500,1820
1551.029000,1820
1551.029500,1802
1551.030000,1797
1551.030500,1812
1551.031000,1800
1551.031500,1794
1551.032000,1803
1551.032500,1814
1551.033000,1805
1551.033500,1821
1551.034000,1828
1551.034500,1818
1551.035000,1812
1551.035500,1825
1551.036000,1813
1551.036500,1808
1551.037000,1817
1551.037500,1826
1551.038000,1799
1551.038500,1807
1551.039000,1808
1551.039500,1792
1551.040000,1780
1551.040500,1792
1551.041000,1782
1551.041500,1776
1551.042000,1788
1551.042500,1793
1551.043000,1782
1551.043500,1797
1551.044000,1799
1551.044500,1792
1551.045000,1788
1551.045500,1804
1551.046000,1800
1551.046500,1796
1551.047000,1808
1551.047500,1820
1551.048000,1803
1551.048500,1814
1551.049000,1814
1551.049500,1805
1551.050000,1800
1551.050500,1821
1551.051000,1814
1551.051500,1809
1551.052000,1820
1551.052500,1824
1551.053000,1810
1551.053500,1809
1551.054000,1818
1551.054500,1802
1551.055000,1798
1551.055500,1813
1551.056000,1803
1551.056500,1796
1551.057000,1811
1551.057500,1818
1551.058000,1800
1551.058500,1806
1551.059000,1812
1551.059500,1797
1551.060000,1795
1551.060500,1813
1551.061000,1801
1551.061500,1795
1551.062000,1807
1551.062500,1818
1551.063000,1801
1551.063500,1811
1551.064000,1815
1551.064500,1799
1551.065000,1795
1551.065500,1810
1551.066000,1806
1551.066500,1798
1551.067000,1812
1551.067500,1816
1551.068000,1801
1551.068500,1808
1551.069000,1811
1551.069500,1797
1551.070000,1795
1551.070500,1806
1551.071000,1802
1551.071500,1797
1551.072000,1811
1551.072500,1817
1551.073000,1800
1551.073500,1810
1551.074000,1811
1551.074500,1799
1551.075000,1793
1551.075500,1810
1551.076000,1804
1551.076500,1797
1551.077000,1810
1551.077500,1813
1551.078000,1798
1551.078500,1812
1551.079000,1812
1551.079500,1799
1551.080000,1795
1551.080500,1811
1551.081000,1806
1551.081500,1800
1551.082000,1815
1551.082500,1822
1551.083000,1809
1551.083500,1815
1551.084000,1816
1551.084500,1801
1551.085000,1799
1551.085500,1814
1551.086000,1810
1551.086500,1802
1551.087000,1813
1551.087500,1815
1551.088000,1800
1551.088500,1799
1551.089000,1809
1551.089500,1800
1551.090000,1795
1551.090500,1808
1551.091000,1803
1551.091500,1795
1551.092000,1804
1551.092500,1813
1551.093000,1804
1551.093500,1817
1551.094000,1820
1551.094500,1806
1551.095000,1802
1551.095500,1815
1551.096000,1808
1551.096500,1801
1551.097000,1814
1551.097500,1820
1551.098000,1805
1551.098500,1824
1551.099000,1810
1551.099500,1796
1551.100000,1790
1551.100500,1805
1551.101000,1797
1551.101500,1794
1551.102000,1807
1551.102500,1814
1551.103000,1799
1551.103500,1817
1551.104000,1807
1551.104500,1796
1551.105000,1791
1551.105500,1808
1551.106000,1800
1551.106500,1796
1551.107000,1811
1551.107500,1815
1551.108000,1801
1551.108500,1821
1551.109000,1812
1551.109500,1802
1551.110000,1803
1551.110500,1821
1551.111000,1817
1551.111500,1806
1551.112000,1818
1551.112500,1826
1551.113000,1811
1551.113500,1812
1551.114000,1818
1551.114500,1803
1551.115000,1796
1551.115500,1812
1551.116000,1798
1551.116500,1791
1551.117000,1799
1551.117500,1808
1551.118000,1790
1551.118500,1807
1551.119000,1804
1551.119500,1795
1551.120000,1794
1551.120500,1815
1551.121000,1808
1551.121500,1804
1551.122000,1812
1551.122500,1824
1551.123000,1806
1551.123500,1831
1551.124000,1814
1551.124500,1804
1551.125000,1797
1551.125500,1813
1551.126000,1801
1551.126500,1797
1551.127000,1807
1551.127500,1813
1551.128000,1797
1551.128500,1817
1551.129000,1805
1551.129500,1797
1551.130000,1793
1551.130500,1806
1551.131000,1801
1551.131500,1796
1551.132000,1808
1551.132500,1814
1551.133000,1797
1551.133500,1814
1551.134000,1808
1551.134500,1801
1551.135000,1796
1551.135500,1810
1551.136000,1797
1551.136500,1800
1551.137000,1812
1551.137500,1816
1551.138000,1803
1551.138500,1803
1551.139000,1815
1551.139500,1807
1551.140000,1801
1551.140500,1818
1551.141000,1806
1551.141500,1806
1551.142000,1814
1551.142500,1824
1551.143000,1806
1551.143500,1801
1551.144000,1814
1551.144500,1805
1551.145000,1802
1551.145500,1812
1551.146000,1819
1551.146500,1799
1551.147000,1810
1551.147500,1815
1551.148000,1801
1551.148500,1794
1551.149000,1805
1551.149500,1794
1551.150000,1790
1551.150500,1798
1551.151000,1800
1551.151500,1785
1551.152000,1798
1551.152500,1807
1551.153000,1795
1551.153500,1794
1551.154000,1803
1551.154500,1796
1551.155000,1791
1551.155500,1804
1551.156000,1810
1551.156500,1797
1551.157000,1809
1551.157500,1814
1551.158000,1803
1551.158500,1799
1551.159000,1811
1551.159500,1804
1551.160000,1800
1551.160500,1814
1551.161000,1818
1551.161500,1804
1551.162000,1811
1551.162500,1818
1551.163000,1805
1551.163500,1801
1551.164000,1816
1551.164500,1807
1551.165000,1802
1551.165500,1814
1551.166000,1818
1551.166500,1804
1551.167000,1813
1551.167500,1817
1551.168000,1805
1551.168500,1800
1551.169000,1815
1551.169500,1808
1551.170000,1801
1551.170500,1812
1551.171000,1817
1551.171500,1801
1551.172000,1815
1551.172500,1825
1551.173000,1809
1551.173500,1805
1551.174000,1818
1551.174500,1810
1551.175000,1802
1551.175500,1814
1551.176000,1816
1551.176500,1801
1551.177000,1800
1551.177500,1814
1551.178000,1805
1551.178500,1803
1551.179000,1815
1551.179500,1809
1551.180000,1798
1551.180500,1810
1551.181000,1819
1551.181500,1802
1551.182000,1813
1551.182500,1813
1551.183000,1804
1551.183500,1799
1551.184000,1808
1551.184500,1798
1551.185000,1796
1551.185500,1801
1551.186000,1805
1551.186500,1792
1551.187000,1812
1551.187500,1808
1551.188000,1793
1551.188500,1788
1551.189000,1802
1551.189500,1795
1551.190000,1793
1551.190500,1803
1551.191000,1807
1551.191500,1795
1551.192000,1810
1551.192500,1820
1551.193000,1803
1551.193500,1799
1551.194000,1813
1551.194500,1804
1551.195000,1805
1551.195500,1815
1551.196000,1822
1551.196500,1810
1551.197000,1830
1551.197500,1827
1551.198000,1812
1551.198500,1803
1551.199000,1813
1551.199500,1801
1551.200000,1793
1551.200500,1805
1551.201000,1811
1551.201500,1793
1551.202000,1809
1551.202500,1807
1551.203000,1798
1551.203500,1800
1551.204000,1816
1551.204500,1805
1551.205000,1806
1551.205500,1815
1551.206000,1819
1551.206500,1806
1551.207000,1820
1551.207500,1821
1551.208000,1810
1551.208500,1803
1551.209000,1814
1551.209500,1799
1551.210000,1793
1551.210500,1797
1551.211000,1804
1551.211500,1789
1551.212000,1812
1551.212500,1810
1551.213000,1793
1551.213500,1789
1551.214000,1804
1551.214500,1798
1551.215000,1794
1551.215500,1805
1551.216000,1813
1551.216500,1799
1551.217000,1808
1551.217500,1815
1551.218000,1808
1551.218500,1806
1551.219000,1819
1551.219500,1806
1551.220000,1802
1551.220500,1815
1551.221000,1820
1551.221500,1805
1551.222000,1822
1551.222500,1825
1551.223000,1809
1551.223500,1803
1551.224000,1815
1551.224500,1798
1551.225000,1798
1551.225500,1811
1551.226000,1817
1551.226500,1801
1551.227000,1796
1551.227500,1817
1551.228000,1807
1551.228500,1803
1551.229000,1817
1551.229500,1820
1551.230000,1799
1551.230500,1813
1551.231000,1821
1551.231500,1812
1551.232000,1811
1551.232500,1833
1551.233000,1821
1551.233500,1814
1551.234000,1822
1551.234500,1821
1551.235000,1800
1551.235500,1808
1551.236000,1807
1551.236500,1787
1551.237000,1781
1551.237500,1794
1551.238000,1782
1551.238500,1772
1551.239000,1785
1551.239500,1792
1551.240000,1779
1551.240500,1796
1551.241000,1804
1551.241500,1792
1551.242000,1787
1551.242500,1809
1551.243000,1804
1551.243500,1802
1551.244000,1814
1551.244500,1802
1551.245000,1799
1551.245500,1810
1551.246000,1814
1551.246500,1800
1551.247000,1813
1551.247500,1813
1551.248000,1803
1551.248500,1797
1551.249000,1812
1551.249500,1797
1551.250000,1798
1551.250500,1809
1551.251000,1813
1551.251500,1802
1551.252000,1818
1551.252500,1821
1551.253000,1807
1551.253500,1802
1551.254000,1815
1551.254500,1808
1551.255000,1803
1551.255500,1816
1551.256000,1823
1551.256500,1808
1551.257000,1811
1551.257500,1819
1551.258000,1809
1551.258500,1800
1551.259000,1812
1551.259500,1815
1551.260000,1797
1551.260500,1811
1551.261000,1817
1551.261500,1802
1551.262000,1797
1551.262500,1815
1551.263000,1802
1551.263500,1799
1551.264000,1809
1551.264500,1813
1551.265000,1794
1551.265500,1810
1551.266000,1809
1551.266500,1798
1551.267000,1790
1551.267500,1807
1551.268000,1799
1551.268500,1798
1551.269000,1806
1551.269500,1817
1551.270000,1801
1551.270500,1806
1551.271000,1813
1551.271500,1801
1551.272000,1797
1551.272500,1812
1551.273000,1804
1551.273500,1797
1551.274000,1808
1551.274500,1814
1551.275000,1800
1551.275500,1805
1551.276000,1814
1551.276500,1802
1551.277000,1797
1551.277500,1817
1551.278000,1806
1551.278500,1802
1551.279000,1811
1551.279500,1817
1551.280000,1801
1551.280500,1806
1551.281000,1813
1551.281500,1801
1551.282000,1795
1551.282500,1816
1551.283000,1805
1551.283500,1803
1551.284000,1816
1551.284500,1821
1551.285000,1804
1551.285500,1816
1551.286000,1819
1551.286500,1808
1551.287000,1801
1551.287500,1817
1551.288000,1810
1551.288500,1801
1551.289000,1811
1551.289500,1815
1551.290000,1798
1551.290500,1808
1551.291000,1810
1551.291500,1795
1551.292000,1789
1551.292500,1810
1551.293000,1798
1551.293500,1796
1551.294000,1805
1551.294500,1811
1551.295000,1797
1551.295500,1798
1551.296000,1814
1551.296500,1803
1551.297000,1797
1551.297500,1817
1551.298000,1811
1551.298500,1802
1551.299000,1811
1551.299500,1816
1551.300000,1799
1551.300500,1816
1551.301000,1811
1551.301500,1800
1551.302000,1796
1551.302500,1815
1551.303000,1801
1551.303500,1798
1551.304000,1810
1551.304500,1819
1551.305000,1809
1551.305500,1824
1551.306000,1823
1551.306500,1810
1551.307000,1806
1551.307500,1820
1551.308000,1808
1551.308500,1811
1551.309000,1815
1551.309500,1819
1551.310000,1802
1551.310500,1797
1551.311000,1809
1551.311500,1796
1551.312000,1791
1551.312500,1805
1551.313000,1808
1551.313500,1794
1551.314000,1802
1551.314500,1810
1551.315000,1795
1551.315500,1789
1551.316000,1804
1551.316500,1794
1551.317000,1793
1551.317500,1811
1551.318000,1809
1551.318500,1789
1551.319000,1800
1551.319500,1801
1551.320000,1789
1551.320500,1784
1551.321000,1803
1551.321500,1794
1551.322000,1791
1551.322500,1806
1551.323000,1808
1551.323500,1791
1551.324000,1805
1551.324500,1813
1551.325000,1802
1551.325500,1800
1551.326000,1816
1551.326500,1808
1551.327000,1801
1551.327500,1821
1551.328000,1824
1551.328500,1803
1551.329000,1815
1551.329500,1819
1551.330000,1804
1551.330500,1798
1551.331000,1816
1551.331500,1807
1551.332000,1800
1551.332500,1816
1551.333000,1822
1551.333500,1807
1551.334000,1814
1551.334500,1822
1551.335000,1811
1551.335500,1805
1551.336000,1819
1551.336500,1811
1551.337000,1803
1551.337500,1814
1551.338000,1818
1551.338500,1798
1551.339000,1805
1551.339500,1811
1551.340000,1798
1551.340500,1791
1551.341000,1807
1551.341500,1796
1551.342000,1788
1551.342500,1798
1551.343000,1806
