# Subject: 
# Trial: mvc
# Notes: 
# Muscles: Ch1
# fs=2000 Hz, nch=1, vref=3.3 V
t_s,ch1_code
1054.280000,1770
1054.280500,1797
1054.281000,1796
1054.281500,1789
1054.282000,1796
1054.282500,1802
1054.283000,1797
1054.283500,1802
1054.284000,1791
1054.284500,1797
1054.285000,1794
1054.285500,1793
1054.286000,1808
1054.286500,1789
1054.287000,1797
1054.287500,1794
1054.288000,1793
1054.288500,1783
1054.289000,1793
1054.289500,1790
1054.290000,1788
1054.290500,1792
1054.291000,1796
1054.291500,1798
1054.292000,1796
1054.292500,1793
1054.293000,1795
1054.293500,1793
1054.294000,1794
1054.294500,1793
1054.295000,1793
1054.295500,1799
1054.296000,1795
1054.296500,1800
1054.297000,1803
1054.297500,1796
1054.298000,1799
1054.298500,1797
1054.299000,1795
1054.299500,1794
1054.300000,1801
1054.300500,1786
1054.301000,1791
1054.301500,1797
1054.302000,1796
1054.302500,1789
1054.303000,1807
1054.303500,1799
1054.304000,1798
1054.304500,1796
1054.305000,1793
1054.305500,1792
1054.306000,1796
1054.306500,1790
1054.307000,1797
1054.307500,1785
1054.308000,1791
1054.308500,1794
1054.309000,1787
1054.309500,1793
1054.310000,1796
1054.310500,1790
1054.311000,1800
1054.311500,1803
1054.312000,1794
1054.312500,1797
1054.313000,1793
1054.313500,1799
1054.314000,1791
1054.314500,1795
1054.315000,1798
1054.315500,1796
1054.316000,1800
1054.316500,1797
1054.317000,1789
1054.317500,1779
1054.318000,1793
1054.318500,1787
1054.319000,1791
1054.319500,1795
1054.320000,1804
1054.320500,1791
1054.321000,1788
1054.321500,1792
1054.322000,1789
1054.322500,1797
1054.323000,1794
1054.323500,1793
1054.324000,1791
1054.324500,1794
1054.325000,1796
1054.325500,1793
1054.326000,1819
1054.326500,1793
1054.327000,1798
1054.327500,1789
1054.328000,1793
1054.328500,1797
1054.329000,1794
1054.329500,1798
1054.330000,1796
1054.330500,1796
1054.331000,1788
1054.331500,1797
1054.332000,1806
1054.332500,1796
1054.333000,1798
1054.333500,1794
1054.334000,1802
1054.334500,1782
1054.335000,1800
1054.335500,1794
1054.336000,1793
1054.336500,1796
1054.337000,1800
1054.337500,1796
1054.338000,1798
1054.338500,1797
1054.339000,1794
1054.339500,1797
1054.340000,1794
1054.340500,1777
1054.341000,1800
1054.341500,1794
1054.342000,1799
1054.342500,1790
1054.343000,1794
1054.343500,1793
1054.344000,1791
1054.344500,1789
1054.345000,1795
1054.345500,1794
1054.346000,1792
1054.346500,1792
1054.347000,1797
1054.347500,1790
1054.348000,1789
1054.348500,1791
1054.349000,1779
1054.349500,1800
1054.350000,1805
1054.350500,1800
1054.351000,1786
1054.351500,1795
1054.352000,1798
1054.352500,1796
1054.353000,1788
1054.353500,1800
1054.354000,1795
1054.354500,1795
1054.355000,1793
1054.355500,1800
1054.356000,1805
1054.356500,1794
1054.357000,1789
1054.357500,1804
1054.358000,1788
1054.358500,1791
1054.359000,1796
1054.359500,1794
1054.360000,1806
1054.360500,1800
1054.361000,1797
1054.361500,1796
1054.362000,1794
1054.362500,1788
1054.363000,1796
1054.363500,1821
1054.364000,1796
1054.364500,1797
1054.365000,1795
1054.365500,1798
1054.366000,1800
1054.366500,1788
1054.367000,1790
1054.367500,1795
1054.368000,1798
1054.368500,1795
1054.369000,1803
1054.369500,1805
1054.370000,1798
1054.370500,1802
1054.371000,1791
1054.371500,1791
1054.372000,1777
1054.372500,1788
1054.373000,1795
1054.373500,1791
1054.374000,1798
1054.374500,1797
1054.375000,1798
1054.375500,1788
1054.376000,1797
1054.376500,1784
1054.377000,1790
1054.377500,1787
1054.378000,1799
1054.378500,1785
1054.379000,1786
1054.379500,1800
1054.380000,1793
1054.380500,1789
1054.381000,1804
1054.381500,1802
1054.382000,1795
1054.382500,1800
1054.383000,1798
1054.383500,1803
1054.384000,1798
1054.384500,1803
1054.385000,1803
1054.385500,1797
1054.386000,1794
1054.386500,1781
1054.387000,1790
1054.387500,1780
1054.388000,1780
1054.388500,1788
1054.389000,1782
1054.389500,1791
1054.390000,1790
1054.390500,1792
1054.391000,1801
1054.391500,1788
1054.392000,1802
1054.392500,1783
1054.393000,1794
1054.393500,1787
1054.394000,1797
1054.394500,1796
1054.395000,1798
1054.395500,1797
1054.396000,1794
1054.396500,1794
1054.397000,1801
1054.397500,1802
1054.398000,1796
1054.398500,1789
1054.399000,1787
1054.399500,1782
1054.400000,1785
1054.400500,1794
1054.401000,1822
1054.401500,1801
1054.402000,1801
1054.402500,1794
1054.403000,1792
1054.403500,1791
1054.404000,1789
1054.404500,1794
1054.405000,1793
1054.405500,1797
1054.406000,1791
1054.406500,1793
1054.407000,1793
1054.407500,1790
1054.408000,1791
1054.408500,1792
1054.409000,1784
1054.409500,1808
1054.410000,1794
1054.410500,1794
1054.411000,1791
1054.411500,1798
1054.412000,1801
1054.412500,1791
1054.413000,1796
1054.413500,1798
1054.414000,1794
1054.414500,1797
1054.415000,1801
1054.415500,1804
1054.416000,1793
1054.416500,1799
1054.417000,1797
1054.417500,1788
1054.418000,1786
1054.418500,1795
1054.419000,1797
1054.419500,1793
1054.420000,1805
1054.420500,1796
1054.421000,1792
1054.421500,1797
1054.422000,1798
1054.422500,1799
1054.423000,1794
1054.423500,1789
1054.424000,1801
1054.424500,1792
1054.425000,1794
1054.425500,1796
1054.426000,1792
1054.426500,1795
1054.427000,1799
1054.427500,1796
1054.428000,1794
1054.428500,1791
1054.429000,1796
1054.429500,1796
1054.430000,1800
1054.430500,1802
1054.431000,1803
1054.431500,1786
1054.432000,1795
1054.432500,1806
1054.433000,1804
1054.433500,1800
1054.434000,1791
1054.434500,1799
1054.435000,1789
1054.435500,1801
1054.436000,1796
1054.436500,1788
1054.437000,1794
1054.437500,1790
1054.438000,1791
1054.438500,1793
1054.439000,1791
1054.439500,1796
1054.440000,1794
1054.440500,1795
1054.441000,1781
1054.441500,1799
1054.442000,1796
1054.442500,1791
1054.443000,1794
1054.443500,1787
1054.444000,1797
1054.444500,1797
1054.445000,1794
1054.445500,1798
1054.446000,1799
1054.446500,1795
1054.447000,1793
1054.447500,1792
1054.448000,1796
1054.448500,1788
1054.449000,1787
1054.449500,1797
1054.450000,1801
1054.450500,1797
1054.451000,1806
1054.451500,1799
1054.452000,1795
1054.452500,1793
1054.453000,1790
1054.453500,1787
1054.454000,1787
1054.454500,1792
1054.455000,1794
1054.455500,1796
1054.456000,1795
1054.456500,1798
1054.457000,1797
1054.457500,1787
1054.458000,1777
1054.458500,1789
1054.459000,1792
1054.459500,1792
1054.460000,1804
1054.460500,1802
1054.461000,1810
1054.461500,1813
1054.462000,1808
1054.462500,1812
1054.463000,1796
1054.463500,1798
1054.464000,1788
1054.464500,1795
1054.465000,1800
1054.465500,1801
1054.466000,1791
1054.466500,1783
1054.467000,1784
1054.467500,1778
1054.468000,1777
1054.468500,1766
1054.469000,1777
1054.469500,1790
1054.470000,1790
1054.470500,1794
1054.471000,1794
1054.471500,1786
1054.472000,1792
1054.472500,1791
1054.473000,1788
1054.473500,1792
1054.474000,1802
1054.474500,1803
1054.475000,1808
1054.475500,1798
1054.476000,1798
1054.476500,1800
1054.477000,1789
1054.477500,1782
1054.478000,1789
1054.478500,1789
1054.479000,1783
1054.479500,1782
1054.480000,1779
1054.480500,1785
1054.481000,1798
1054.481500,1795
1054.482000,1792
1054.482500,1789
1054.483000,1790
1054.483500,1806
1054.484000,1802
1054.484500,1812
1054.485000,1816
1054.485500,1814
1054.486000,1796
1054.486500,1808
1054.487000,1805
1054.487500,1793
1054.488000,1793
1054.488500,1774
1054.489000,1782
1054.489500,1778
1054.490000,1782
1054.490500,1787
1054.491000,1793
1054.491500,1789
1054.492000,1775
1054.492500,1794
1054.493000,1808
1054.493500,1808
1054.494000,1816
1054.494500,1817
1054.495000,1815
1054.495500,1808
1054.496000,1805
1054.496500,1797
1054.497000,1786
1054.497500,1774
1054.498000,1762
1054.498500,1772
1054.499000,1780
1054.499500,1785
1054.500000,1790
1054.500500,1794
1054.501000,1793
1054.501500,1786
1054.502000,1793
1054.502500,1793
1054.503000,1784
1054.503500,1790
1054.504000,1783
1054.504500,1786
1054.505000,1793
1054.505500,1796
1054.506000,1787
1054.506500,1805
1054.507000,1794
1054.507500,1795
1054.508000,1796
1054.508500,1792
1054.509000,1801
1054.509500,1796
1054.510000,1796
1054.510500,1790
1054.511000,1794
1054.511500,1792
1054.512000,1787
1054.512500,1798
1054.513000,1794
1054.513500,1796
1054.514000,1802
1054.514500,1805
1054.515000,1793
1054.515500,1813
1054.516000,1811
1054.516500,1808
1054.517000,1806
1054.517500,1803
1054.518000,1793
1054.518500,1777
1054.519000,1789
1054.519500,1776
1054.520000,1782
1054.520500,1786
1054.521000,1782
1054.521500,1795
1054.522000,1798
1054.522500,1802
1054.523000,1808
1054.523500,1800
1054.524000,1820
1054.524500,1809
1054.525000,1798
1054.525500,1796
1054.526000,1781
1054.526500,1777
1054.527000,1777
1054.527500,1786
1054.528000,1786
1054.528500,1789
1054.529000,1799
1054.529500,1786
1054.530000,1783
1054.530500,1796
1054.531000,1802
1054.531500,1798
1054.532000,1793
1054.532500,1797
1054.533000,1798
1054.533500,1791
1054.534000,1789
1054.534500,1790
1054.535000,1786
1054.535500,1769
1054.536000,1790
1054.536500,1780
1054.537000,1788
1054.537500,1797
1054.538000,1797
1054.538500,1779
1054.539000,1788
1054.539500,1792
1054.540000,1797
1054.540500,1801
1054.541000,1796
1054.541500,1788
1054.542000,1794
1054.542500,1799
1054.543000,1801
1054.543500,1809
1054.544000,1812
1054.544500,1810
1054.545000,1812
1054.545500,1815
1054.546000,1801
1054.546500,1802
1054.547000,1797
1054.547500,1782
1054.548000,1775
1054.548500,1766
1054.549000,1774
1054.549500,1773
1054.550000,1800
1054.550500,1785
1054.551000,1786
1054.551500,1791
1054.552000,1793
1054.552500,1778
1054.553000,1809
1054.553500,1812
1054.554000,1815
1054.554500,1810
1054.555000,1809
1054.555500,1807
1054.556000,1810
1054.556500,1805
1054.557000,1781
1054.557500,1777
1054.558000,1774
1054.558500,1750
1054.559000,1780
1054.559500,1775
1054.560000,1781
1054.560500,1772
1054.561000,1769
1054.561500,1774
1054.562000,1772
1054.562500,1781
1054.563000,1801
1054.563500,1794
1054.564000,1803
1054.564500,1804
1054.565000,1809
1054.565500,1814
1054.566000,1808
1054.566500,1797
1054.567000,1790
1054.567500,1786
1054.568000,1793
1054.568500,1790
1054.569000,1799
1054.569500,1800
1054.570000,1798
1054.570500,1789
1054.571000,1799
1054.571500,1800
1054.572000,1787
1054.572500,1784
1054.573000,1799
1054.573500,1795
1054.574000,1798
1054.574500,1792
1054.575000,1794
1054.575500,1800
1054.576000,1801
1054.576500,1801
1054.577000,1799
1054.577500,1801
1054.578000,1800
1054.578500,1810
1054.579000,1811
1054.579500,1832
1054.580000,1842
1054.580500,1838
1054.581000,1835
1054.581500,1807
1054.582000,1805
1054.582500,1791
1054.583000,1776
1054.583500,1768
1054.584000,1769
1054.584500,1755
1054.585000,1760
1054.585500,1769
1054.586000,1769
1054.586500,1781
1054.587000,1789
1054.587500,1799
1054.588000,1787
1054.588500,1784
1054.589000,1793
1054.589500,1804
1054.590000,1803
1054.590500,1816
1054.591000,1815
1054.591500,1810
1054.592000,1804
1054.592500,1797
1054.593000,1762
1054.593500,1761
1054.594000,1773
1054.594500,1786
1054.595000,1799
1054.595500,1808
1054.596000,1794
1054.596500,1797
1054.597000,1804
1054.597500,1824
1054.598000,1819
1054.598500,1825
1054.599000,1812
1054.599500,1808
1054.600000,1800
1054.600500,1790
1054.601000,1795
1054.601500,1765
1054.602000,1755
1054.602500,1754
1054.603000,1756
1054.603500,1748
1054.604000,1762
1054.604500,1766
1054.605000,1771
1054.605500,1779
1054.606000,1792
1054.606500,1784
1054.607000,1792
1054.607500,1782
1054.608000,1792
1054.608500,1796
1054.609000,1809
1054.609500,1815
1054.610000,1825
1054.610500,1826
1054.611000,1818
1054.611500,1835
1054.612000,1832
1054.612500,1828
1054.613000,1813
1054.613500,1818
1054.614000,1823
1054.614500,1826
1054.615000,1825
1054.615500,1799
1054.616000,1805
1054.616500,1790
1054.617000,1753
1054.617500,1734
1054.618000,1722
1054.618500,1737
1054.619000,1756
1054.619500,1773
1054.620000,1770
1054.620500,1771
1054.621000,1781
1054.621500,1790
1054.622000,1761
1054.622500,1776
1054.623000,1785
1054.623500,1792
1054.624000,1795
1054.624500,1798
1054.625000,1797
1054.625500,1805
1054.626000,1817
1054.626500,1828
1054.627000,1825
1054.627500,1820
1054.628000,1809
1054.628500,1789
1054.629000,1788
1054.629500,1788
1054.630000,1786
1054.630500,1792
1054.631000,1779
1054.631500,1785
1054.632000,1778
1054.632500,1783
1054.633000,1788
1054.633500,1793
1054.634000,1798
1054.634500,1792
1054.635000,1796
1054.635500,1769
1054.636000,1802
1054.636500,1783
1054.637000,1789
1054.637500,1786
1054.638000,1806
1054.638500,1793
1054.639000,1787
1054.639500,1786
1054.640000,1783
1054.640500,1768
1054.641000,1759
1054.641500,1751
1054.642000,1756
1054.642500,1802
1054.643000,1824
1054.643500,1846
1054.644000,1860
1054.644500,1863
1054.645000,1856
1054.645500,1839
1054.646000,1831
1054.646500,1807
1054.647000,1774
1054.647500,1741
1054.648000,1722
1054.648500,1748
1054.649000,1767
1054.649500,1785
1054.650000,1817
1054.650500,1845
1054.651000,1824
1054.651500,1802
1054.652000,1804
1054.652500,1807
1054.653000,1802
1054.653500,1806
1054.654000,1789
1054.654500,1780
1054.655000,1753
1054.655500,1728
1054.656000,1718
1054.656500,1744
1054.657000,1727
1054.657500,1740
1054.658000,1752
1054.658500,1770
1054.659000,1794
1054.659500,1816
1054.660000,1841
1054.660500,1833
1054.661000,1824
1054.661500,1828
1054.662000,1820
1054.662500,1830
1054.663000,1819
1054.663500,1806
1054.664000,1808
1054.664500,1791
1054.665000,1799
1054.665500,1784
1054.666000,1770
1054.666500,1772
1054.667000,1801
1054.667500,1821
1054.668000,1826
1054.668500,1824
1054.669000,1823
1054.669500,1821
1054.670000,1819
1054.670500,1808
1054.671000,1760
1054.671500,1747
1054.672000,1732
1054.672500,1746
1054.673000,1757
1054.673500,1768
1054.674000,1766
1054.674500,1787
1054.675000,1784
1054.675500,1782
1054.676000,1788
1054.676500,1783
1054.677000,1815
1054.677500,1829
1054.678000,1835
1054.678500,1843
1054.679000,1828
1054.679500,1808
1054.680000,1841
1054.680500,1834
1054.681000,1813
1054.681500,1779
1054.682000,1738
1054.682500,1723
1054.683000,1715
1054.683500,1716
1054.684000,1724
1054.684500,1732
1054.685000,1749
1054.685500,1771
1054.686000,1782
1054.686500,1785
1054.687000,1791
1054.687500,1791
1054.688000,1772
1054.688500,1787
1054.689000,1789
1054.689500,1800
1054.690000,1816
1054.690500,1798
1054.691000,1786
1054.691500,1789
1054.692000,1798
1054.692500,1791
1054.693000,1791
1054.693500,1794
1054.694000,1790
1054.694500,1780
1054.695000,1800
1054.695500,1787
1054.696000,1801
1054.696500,1813
1054.697000,1808
1054.697500,1820
1054.698000,1822
1054.698500,1810
1054.699000,1792
1054.699500,1803
1054.700000,1813
1054.700500,1806
1054.701000,1799
1054.701500,1798
1054.702000,1793
1054.702500,1812
1054.703000,1790
1054.703500,1787
1054.704000,1786
1054.704500,1777
1054.705000,1789
1054.705500,1803
1054.706000,1799
1054.706500,1788
1054.707000,1786
1054.707500,1802
1054.708000,1810
1054.708500,1791
1054.709000,1802
1054.709500,1799
1054.710000,1786
1054.710500,1782
1054.711000,1764
1054.711500,1735
1054.712000,1717
1054.712500,1725
1054.713000,1748
1054.713500,1776
1054.714000,1815
1054.714500,1821
1054.715000,1838
1054.715500,1844
1054.716000,1866
1054.716500,1887
1054.717000,1899
1054.717500,1881
1054.718000,1851
1054.718500,1818
1054.719000,1805
1054.719500,1775
1054.720000,1756
1054.720500,1716
1054.721000,1722
1054.721500,1725
1054.722000,1734
1054.722500,1745
1054.723000,1780
1054.723500,1745
1054.724000,1773
1054.724500,1814
1054.725000,1849
1054.725500,1853
1054.726000,1840
1054.726500,1832
1054.727000,1821
1054.727500,1781
1054.728000,1751
1054.728500,1746
1054.729000,1735
1054.729500,1737
1054.730000,1759
1054.730500,1762
1054.731000,1768
1054.731500,1784
1054.732000,1767
1054.732500,1780
1054.733000,1771
1054.733500,1756
1054.734000,1759
1054.734500,1785
1054.735000,1819
1054.735500,1847
1054.736000,1854
1054.736500,1867
1054.737000,1881
1054.737500,1882
1054.738000,1848
1054.738500,1832
1054.739000,1809
1054.739500,1788
1054.740000,1813
1054.740500,1844
1054.741000,1882
1054.741500,1917
1054.742000,1920
1054.742500,1910
1054.743000,1883
1054.743500,1848
1054.744000,1816
1054.744500,1775
1054.745000,1695
1054.745500,1633
1054.746000,1654
1054.746500,1690
1054.747000,1727
1054.747500,1723
1054.748000,1716
1054.748500,1773
1054.749000,1778
1054.749500,1780
1054.750000,1763
1054.750500,1794
1054.751000,1833
1054.751500,1828
1054.752000,1839
1054.752500,1841
1054.753000,1850
1054.753500,1826
1054.754000,1776
1054.754500,1733
1054.755000,1749
1054.755500,1778
1054.756000,1782
1054.756500,1772
1054.757000,1790
1054.757500,1750
1054.758000,1738
1054.758500,1758
1054.759000,1788
1054.759500,1836
1054.760000,1861
1054.760500,1865
1054.761000,1870
1054.761500,1867
1054.762000,1876
1054.762500,1852
1054.763000,1789
1054.763500,1720
1054.764000,1704
1054.764500,1742
1054.765000,1726
1054.765500,1698
1054.766000,1729
1054.766500,1788
1054.767000,1825
1054.767500,1824
1054.768000,1803
1054.768500,1809
1054.769000,1814
1054.769500,1845
1054.770000,1847
1054.770500,1859
1054.771000,1841
1054.771500,1810
1054.772000,1821
1054.772500,1822
1054.773000,1806
1054.773500,1804
1054.774000,1799
1054.774500,1770
1054.775000,1717
1054.775500,1647
1054.776000,1612
1054.776500,1610
1054.777000,1654
1054.777500,1769
1054.778000,1803
1054.778500,1819
1054.779000,1825
1054.779500,1802
1054.780000,1766
1054.780500,1787
1054.781000,1794
1054.781500,1835
1054.782000,1864
1054.782500,1864
1054.783000,1828
1054.783500,1782
1054.784000,1752
1054.784500,1744
1054.785000,1746
1054.785500,1753
1054.786000,1829
1054.786500,1880
1054.787000,1878
1054.787500,1796
1054.788000,1736
1054.788500,1697
1054.789000,1702
1054.789500,1741
1054.790000,1806
1054.790500,1824
1054.791000,1854
1054.791500,1850
1054.792000,1824
1054.792500,1804
1054.793000,1784
1054.793500,1783
1054.794000,1797
1054.794500,1828
1054.795000,1840
1054.795500,1845
1054.796000,1851
1054.796500,1892
1054.797000,1914
1054.797500,1955
1054.798000,1932
1054.798500,1873
1054.799000,1839
1054.799500,1790
1054.800000,1772
1054.800500,1718
1054.801000,1679
1054.801500,1681
1054.802000,1662
1054.802500,1664
1054.803000,1703
1054.803500,1767
1054.804000,1822
1054.804500,1820
1054.805000,1812
1054.805500,1791
1054.806000,1750
1054.806500,1762
1054.807000,1826
1054.807500,1811
1054.808000,1782
1054.808500,1795
1054.809000,1796
1054.809500,1767
1054.810000,1722
1054.810500,1699
1054.811000,1682
1054.811500,1687
1054.812000,1696
1054.812500,1707
1054.813000,1729
1054.813500,1784
1054.814000,1809
1054.814500,1821
1054.815000,1841
1054.815500,1874
1054.816000,1892
1054.816500,1914
1054.817000,1960
1054.817500,2071
1054.818000,2141
1054.818500,2126
1054.819000,2018
1054.819500,1819
1054.820000,1652
1054.820500,1506
1054.821000,1507
1054.821500,1593
1054.822000,1670
1054.822500,1708
1054.823000,1774
1054.823500,1832
1054.824000,1792
1054.824500,1741
1054.825000,1737
1054.825500,1743
1054.826000,1757
1054.826500,1723
1054.827000,1703
1054.827500,1744
1054.828000,1750
1054.828500,1739
1054.829000,1708
1054.829500,1710
1054.830000,1724
1054.830500,1718
1054.831000,1764
1054.831500,1836
1054.832000,1887
1054.832500,1913
1054.833000,1866
1054.833500,1848
1054.834000,1869
1054.834500,1876
1054.835000,1843
1054.835500,1790
1054.836000,1818
1054.836500,1840
1054.837000,1816
1054.837500,1852
1054.838000,1909
1054.838500,1911
1054.839000,1843
1054.839500,1836
1054.840000,1854
1054.840500,1868
1054.841000,1855
1054.841500,1838
1054.842000,1784
1054.842500,1726
1054.843000,1707
1054.843500,1705
1054.844000,1705
1054.844500,1713
1054.845000,1689
1054.845500,1661
1054.846000,1635
1054.846500,1614
1054.847000,1601
1054.847500,1701
1054.848000,1808
1054.848500,1874
1054.849000,1947
1054.849500,2012
1054.850000,2064
1054.850500,1995
1054.851000,1847
1054.851500,1780
1054.852000,1808
1054.852500,1854
1054.853000,1861
1054.853500,1838
1054.854000,1807
1054.854500,1795
1054.855000,1804
1054.855500,1782
1054.856000,1755
1054.856500,1691
1054.857000,1657
1054.857500,1607
1054.858000,1548
1054.858500,1575
1054.859000,1684
1054.859500,1794
1054.860000,1843
1054.860500,1864
1054.861000,1839
1054.861500,1807
1054.862000,1810
1054.862500,1814
1054.863000,1800
1054.863500,1823
1054.864000,1905
1054.864500,1942
1054.865000,1919
1054.865500,1859
1054.866000,1812
1054.866500,1754
1054.867000,1735
1054.867500,1755
1054.868000,1770
1054.868500,1760
1054.869000,1755
1054.869500,1791
1054.870000,1729
1054.870500,1690
1054.871000,1675
1054.871500,1674
1054.872000,1736
1054.872500,1796
1054.873000,1907
1054.873500,2039
1054.874000,2028
1054.874500,1978
1054.875000,1950
1054.875500,1970
1054.876000,1966
1054.876500,1900
1054.877000,1774
1054.877500,1652
1054.878000,1552
1054.878500,1552
1054.879000,1571
1054.879500,1651
1054.880000,1748
1054.880500,1740
1054.881000,1733
1054.881500,1733
1054.882000,1712
1054.882500,1682
1054.883000,1717
1054.883500,1761
1054.884000,1794
1054.884500,1854
1054.885000,1842
1054.885500,1800
1054.886000,1760
1054.886500,1733
1054.887000,1742
1054.887500,1708
1054.888000,1731
1054.888500,1795
1054.889000,1843
1054.889500,1876
1054.890000,1932
1054.890500,1934
1054.891000,1798
1054.891500,1715
1054.892000,1743
1054.892500,1801
1054.893000,1798
1054.893500,1767
1054.894000,1733
1054.894500,1747
1054.895000,1774
1054.895500,1815
1054.896000,1850
1054.896500,1836
1054.897000,1816
1054.897500,1783
1054.898000,1775
1054.898500,1860
1054.899000,1925
1054.899500,1970
1054.900000,1979
1054.900500,1943
1054.901000,1860
1054.901500,1826
1054.902000,1836
1054.902500,1828
1054.903000,1776
1054.903500,1726
1054.904000,1742
1054.904500,1739
1054.905000,1732
1054.905500,1726
1054.906000,1757
1054.906500,1833
1054.907000,1858
1054.907500,1887
1054.908000,1866
1054.908500,1831
1054.909000,1763
1054.909500,1698
1054.910000,1698
1054.910500,1732
1054.911000,1829
1054.911500,1867
1054.912000,1837
1054.912500,1824
1054.913000,1901
1054.913500,1930
1054.914000,1893
1054.914500,1807
1054.915000,1717
1054.915500,1663
1054.916000,1702
1054.916500,1733
1054.917000,1758
1054.917500,1787
1054.918000,1785
1054.918500,1796
1054.919000,1808
1054.919500,1787
1054.920000,1778
1054.920500,1749
1054.921000,1702
1054.921500,1707
1054.922000,1805
1054.922500,1874
1054.923000,1873
1054.923500,1916
1054.924000,1932
1054.924500,1871
1054.925000,1810
1054.925500,1769
1054.926000,1712
1054.926500,1642
1054.927000,1612
1054.927500,1608
1054.928000,1645
1054.928500,1732
1054.929000,1884
1054.929500,1960
1054.930000,1877
1054.930500,1704
1054.931000,1600
1054.931500,1593
1054.932000,1660
1054.932500,1738
1054.933000,1810
1054.933500,1820
1054.934000,1821
1054.934500,1812
1054.935000,1799
1054.935500,1809
1054.936000,1830
1054.936500,1846
1054.937000,1834
1054.937500,1845
1054.938000,1827
1054.938500,1805
1054.939000,1815
1054.939500,1825
1054.940000,1867
1054.940500,1864
1054.941000,1846
1054.941500,1799
1054.942000,1760
1054.942500,1741
1054.943000,1738
1054.943500,1762
1054.944000,1757
1054.944500,1726
1054.945000,1706
1054.945500,1693
1054.946000,1735
1054.946500,1808
1054.947000,1894
1054.947500,1993
1054.948000,2070
1054.948500,2079
1054.949000,1983
1054.949500,1811
1054.950000,1655
1054.950500,1715
1054.951000,1828
1054.951500,1874
1054.952000,1878
1054.952500,1841
1054.953000,1813
1054.953500,1808
1054.954000,1800
1054.954500,1785
1054.955000,1784
1054.955500,1780
1054.956000,1775
1054.956500,1777
1054.957000,1808
1054.957500,1845
1054.958000,1871
1054.958500,1882
1054.959000,1863
1054.959500,1855
1054.960000,1800
1054.960500,1722
1054.961000,1704
1054.961500,1683
1054.962000,1685
1054.962500,1689
1054.963000,1686
1054.963500,1676
1054.964000,1670
1054.964500,1696
1054.965000,1722
1054.965500,1732
1054.966000,1726
1054.966500,1725
1054.967000,1776
1054.967500,1854
1054.968000,1812
1054.968500,1826
1054.969000,1845
1054.969500,1832
1054.970000,1776
1054.970500,1770
1054.971000,1748
1054.971500,1728
1054.972000,1669
1054.972500,1644
1054.973000,1716
1054.973500,1782
1054.974000,1865
1054.974500,1916
1054.975000,1914
1054.975500,1910
1054.976000,1901
1054.976500,1869
1054.977000,1841
1054.977500,1815
1054.978000,1777
1054.978500,1759
1054.979000,1815
1054.979500,1841
1054.980000,1891
1054.980500,1972
1054.981000,1977
1054.981500,1958
1054.982000,1951
1054.982500,1912
1054.983000,1865
1054.983500,1776
1054.984000,1685
1054.984500,1609
1054.985000,1618
1054.985500,1626
1054.986000,1670
1054.986500,1711
1054.987000,1714
1054.987500,1711
1054.988000,1723
1054.988500,1789
1054.989000,1841
1054.989500,1858
1054.990000,1854
1054.990500,1841
1054.991000,1788
1054.991500,1739
1054.992000,1752
1054.992500,1801
1054.993000,1834
1054.993500,1862
1054.994000,1852
1054.994500,1796
1054.995000,1753
1054.995500,1775
1054.996000,1841
1054.996500,1842
1054.997000,1817
1054.997500,1805
1054.998000,1785
1054.998500,1768
1054.999000,1791
1054.999500,1814
1055.000000,1820
1055.000500,1833
1055.001000,1857
1055.001500,1848
1055.002000,1827
1055.002500,1801
1055.003000,1776
1055.003500,1788
1055.004000,1821
1055.004500,1850
1055.005000,1845
1055.005500,1813
1055.006000,1770
1055.006500,1745
1055.007000,1714
1055.007500,1695
1055.008000,1715
1055.008500,1738
1055.009000,1753
1055.009500,1806
1055.010000,1843
1055.010500,1817
1055.011000,1803
1055.011500,1749
1055.012000,1699
1055.012500,1690
1055.013000,1726
1055.013500,1848
1055.014000,1953
1055.014500,2008
1055.015000,1994
1055.015500,1887
1055.016000,1799
1055.016500,1750
1055.017000,1757
1055.017500,1770
1055.018000,1777
1055.018500,1768
1055.019000,1787
1055.019500,1773
1055.020000,1761
1055.020500,1743
1055.021000,1736
1055.021500,1776
1055.022000,1774
1055.022500,1764
1055.023000,1785
1055.023500,1803
1055.024000,1809
1055.024500,1803
1055.025000,1762
1055.025500,1721
1055.026000,1719
1055.026500,1769
1055.027000,1789
1055.027500,1790
1055.028000,1798
1055.028500,1803
1055.029000,1770
1055.029500,1744
1055.030000,1756
1055.030500,1762
1055.031000,1773
1055.031500,1848
1055.032000,1904
1055.032500,1938
1055.033000,1929
1055.033500,1876
1055.034000,1789
1055.034500,1738
1055.035000,1747
1055.035500,1768
1055.036000,1780
1055.036500,1786
1055.037000,1796
1055.037500,1804
1055.038000,1783
1055.038500,1781
1055.039000,1780
1055.039500,1766
1055.040000,1762
1055.040500,1778
1055.041000,1792
1055.041500,1786
1055.042000,1792
1055.042500,1805
1055.043000,1823
1055.043500,1868
1055.044000,1949
1055.044500,1999
1055.045000,2004
1055.045500,1933
1055.046000,1841
1055.046500,1795
1055.047000,1765
1055.047500,1709
1055.048000,1663
1055.048500,1669
1055.049000,1705
1055.049500,1740
1055.050000,1786
1055.050500,1808
1055.051000,1805
1055.051500,1775
1055.052000,1774
1055.052500,1747
1055.053000,1707
1055.053500,1738
1055.054000,1778
1055.054500,1800
1055.055000,1807
1055.055500,1810
1055.056000,1807
1055.056500,1792
1055.057000,1785
1055.057500,1793
1055.058000,1804
1055.058500,1782
1055.059000,1824
1055.059500,1864
1055.060000,1862
1055.060500,1886
1055.061000,1862
1055.061500,1771
1055.062000,1738
1055.062500,1758
1055.063000,1760
1055.063500,1734
1055.064000,1717
1055.064500,1688
1055.065000,1702
1055.065500,1734
1055.066000,1770
1055.066500,1798
1055.067000,1836
1055.067500,1817
1055.068000,1798
1055.068500,1788
1055.069000,1813
1055.069500,1815
1055.070000,1789
1055.070500,1788
1055.071000,1784
1055.071500,1812
1055.072000,1866
1055.072500,1922
1055.073000,1920
1055.073500,1884
1055.074000,1825
1055.074500,1785
1055.075000,1765
1055.075500,1783
1055.076000,1789
1055.076500,1809
1055.077000,1814
1055.077500,1798
1055.078000,1772
1055.078500,1752
1055.079000,1757
1055.079500,1798
1055.080000,1852
1055.080500,1865
1055.081000,1941
1055.081500,1988
1055.082000,1975
1055.082500,1897
1055.083000,1803
1055.083500,1766
1055.084000,1747
1055.084500,1773
1055.085000,1772
1055.085500,1758
1055.086000,1748
1055.086500,1723
1055.087000,1661
1055.087500,1634
1055.088000,1672
1055.088500,1743
1055.089000,1792
1055.089500,1814
1055.090000,1813
1055.090500,1803
1055.091000,1809
1055.091500,1799
1055.092000,1780
1055.092500,1777
1055.093000,1794
1055.093500,1781
1055.094000,1779
1055.094500,1773
1055.095000,1789
1055.095500,1785
1055.096000,1793
1055.096500,1793
1055.097000,1802
1055.097500,1818
1055.098000,1838
1055.098500,1839
1055.099000,1817
1055.099500,1777
1055.100000,1758
1055.100500,1743
1055.101000,1728
1055.101500,1745
1055.102000,1782
1055.102500,1817
1055.103000,1849
1055.103500,1852
1055.104000,1868
1055.104500,1877
1055.105000,1806
1055.105500,1706
1055.106000,1681
1055.106500,1704
1055.107000,1780
1055.107500,1844
1055.108000,1825
1055.108500,1826
1055.109000,1897
1055.109500,1963
1055.110000,1922
1055.110500,1855
1055.111000,1847
1055.111500,1813
1055.112000,1762
1055.112500,1776
1055.113000,1783
1055.113500,1782
1055.114000,1780
1055.114500,1770
1055.115000,1776
1055.115500,1735
1055.116000,1703
1055.116500,1711
1055.117000,1725
1055.117500,1743
1055.118000,1740
1055.118500,1744
1055.119000,1722
1055.119500,1718
1055.120000,1704
1055.120500,1760
1055.121000,1820
1055.121500,1847
1055.122000,1842
1055.122500,1860
1055.123000,1896
1055.123500,1868
1055.124000,1856
1055.124500,1846
1055.125000,1837
1055.125500,1807
1055.126000,1774
1055.126500,1765
1055.127000,1747
1055.127500,1759
1055.128000,1740
1055.128500,1746
1055.129000,1785
1055.129500,1810
1055.130000,1825
1055.130500,1828
1055.131000,1823
1055.131500,1815
1055.132000,1796
1055.132500,1801
1055.133000,1789
1055.133500,1789
1055.134000,1763
1055.134500,1762
1055.135000,1777
1055.135500,1807
1055.136000,1809
1055.136500,1803
1055.137000,1798
1055.137500,1808
1055.138000,1807
1055.138500,1803
1055.139000,1794
1055.139500,1781
1055.140000,1816
1055.140500,1793
1055.141000,1802
1055.141500,1817
1055.142000,1818
1055.142500,1836
1055.143000,1833
1055.143500,1838
1055.144000,1840
1055.144500,1825
1055.145000,1808
1055.145500,1790
1055.146000,1760
1055.146500,1754
1055.147000,1754
1055.147500,1771
1055.148000,1768
1055.148500,1767
1055.149000,1779
1055.149500,1787
1055.150000,1793
1055.150500,1789
1055.151000,1799
1055.151500,1812
1055.152000,1803
1055.152500,1808
1055.153000,1791
1055.153500,1778
1055.154000,1771
1055.154500,1772
1055.155000,1770
1055.155500,1769
1055.156000,1769
1055.156500,1770
1055.157000,1778
1055.157500,1805
1055.158000,1802
1055.158500,1801
1055.159000,1809
1055.159500,1805
1055.160000,1801
1055.160500,1820
1055.161000,1819
1055.161500,1817
1055.162000,1818
1055.162500,1798
1055.163000,1775
1055.163500,1784
1055.164000,1778
1055.164500,1793
1055.165000,1792
1055.165500,1792
1055.166000,1803
1055.166500,1785
1055.167000,1800
1055.167500,1860
1055.168000,1908
1055.168500,1929
1055.169000,1906
1055.169500,1849
1055.170000,1783
1055.170500,1742
1055.171000,1735
1055.171500,1714
1055.172000,1689
1055.172500,1697
1055.173000,1734
1055.173500,1773
1055.174000,1797
1055.174500,1809
1055.175000,1815
1055.175500,1807
1055.176000,1822
1055.176500,1822
1055.177000,1830
1055.177500,1831
1055.178000,1798
1055.178500,1747
1055.179000,1736
1055.179500,1766
1055.180000,1757
1055.180500,1796
1055.181000,1829
1055.181500,1831
1055.182000,1836
1055.182500,1836
1055.183000,1863
1055.183500,1851
1055.184000,1824
1055.184500,1787
1055.185000,1763
1055.185500,1766
1055.186000,1783
1055.186500,1800
1055.187000,1801
1055.187500,1804
1055.188000,1811
1055.188500,1833
1055.189000,1824
1055.189500,1814
1055.190000,1803
1055.190500,1781
1055.191000,1753
1055.191500,1707
1055.192000,1717
1055.192500,1741
1055.193000,1774
1055.193500,1784
1055.194000,1794
1055.194500,1800
1055.195000,1797
1055.195500,1791
1055.196000,1776
1055.196500,1776
1055.197000,1803
1055.197500,1782
1055.198000,1792
1055.198500,1794
1055.199000,1805
1055.199500,1814
1055.200000,1821
1055.200500,1822
1055.201000,1825
1055.201500,1800
1055.202000,1793
1055.202500,1793
1055.203000,1798
1055.203500,1802
1055.204000,1808
1055.204500,1804
1055.205000,1805
1055.205500,1807
1055.206000,1809
1055.206500,1819
1055.207000,1821
1055.207500,1815
1055.208000,1794
1055.208500,1789
1055.209000,1785
1055.209500,1789
1055.210000,1787
1055.210500,1784
1055.211000,1770
1055.211500,1786
1055.212000,1786
1055.212500,1782
1055.213000,1785
1055.213500,1796
1055.214000,1805
1055.214500,1796
1055.215000,1796
1055.215500,1796
1055.216000,1797
1055.216500,1786
1055.217000,1795
1055.217500,1800
1055.218000,1790
1055.218500,1787
1055.219000,1786
1055.219500,1775
1055.220000,1800
1055.220500,1790
1055.221000,1792
1055.221500,1791
1055.222000,1800
1055.222500,1786
1055.223000,1785
1055.223500,1787
1055.224000,1784
1055.224500,1786
1055.225000,1789
1055.225500,1790
1055.226000,1799
1055.226500,1795
1055.227000,1795
1055.227500,1795
1055.228000,1794
1055.228500,1792
1055.229000,1808
1055.229500,1807
1055.230000,1813
1055.230500,1809
1055.231000,1817
1055.231500,1792
1055.232000,1797
1055.232500,1803
1055.233000,1797
1055.233500,1794
1055.234000,1785
1055.234500,1786
1055.235000,1790
1055.235500,1785
1055.236000,1793
1055.236500,1789
1055.237000,1754
1055.237500,1801
1055.238000,1802
1055.238500,1796
1055.239000,1799
1055.239500,1787
1055.240000,1797
1055.240500,1794
1055.241000,1796
1055.241500,1797
1055.242000,1795
1055.242500,1791
1055.243000,1786
1055.243500,1803
1055.244000,1797
1055.244500,1798
1055.245000,1792
1055.245500,1786
1055.246000,1796
1055.246500,1792
1055.247000,1794
1055.247500,1802
1055.248000,1795
1055.248500,1804
1055.249000,1808
1055.249500,1811
1055.250000,1810
1055.250500,1811
1055.251000,1806
1055.251500,1783
1055.252000,1798
1055.252500,1788
1055.253000,1790
1055.253500,1788
1055.254000,1791
1055.254500,1793
1055.255000,1801
1055.255500,1793
1055.256000,1805
1055.256500,1822
1055.257000,1823
1055.257500,1835
1055.258000,1823
1055.258500,1810
1055.259000,1793
1055.259500,1790
1055.260000,1769
1055.260500,1765
1055.261000,1770
1055.261500,1769
1055.262000,1781
1055.262500,1779
1055.263000,1782
1055.263500,1785
1055.264000,1787
1055.264500,1786
1055.265000,1795
1055.265500,1786
1055.266000,1800
1055.266500,1789
1055.267000,1788
1055.267500,1790
1055.268000,1792
1055.268500,1795
1055.269000,1789
1055.269500,1794
1055.270000,1795
1055.270500,1792
1055.271000,1793
1055.271500,1791
1055.272000,1801
1055.272500,1802
1055.273000,1803
1055.273500,1800
1055.274000,1798
1055.274500,1820
1055.275000,1803
1055.275500,1796
1055.276000,1792
1055.276500,1802
1055.277000,1806
1055.277500,1799
1055.278000,1798
1055.278500,1793
1055.279000,1795
1055.279500,1788
1055.280000,1797
1055.280500,1801
1055.281000,1800
1055.281500,1800
1055.282000,1798
1055.282500,1790
1055.283000,1785
1055.283500,1795
1055.284000,1791
1055.284500,1790
1055.285000,1788
1055.285500,1791
1055.286000,1795
1055.286500,1796
1055.287000,1795
1055.287500,1801
1055.288000,1795
1055.288500,1800
1055.289000,1776
1055.289500,1793
1055.290000,1794
1055.290500,1793
1055.291000,1783
1055.291500,1796
1055.292000,1801
1055.292500,1788
1055.293000,1797
1055.293500,1798
1055.294000,1805
1055.294500,1798
1055.295000,1799
1055.295500,1798
1055.296000,1798
1055.296500,1792
1055.297000,1795
1055.297500,1795
1055.298000,1791
1055.298500,1786
1055.299000,1796
1055.299500,1797
1055.300000,1794
1055.300500,1799
1055.301000,1798
1055.301500,1789
1055.302000,1800
1055.302500,1796
1055.303000,1792
1055.303500,1796
1055.304000,1800
1055.304500,1794
1055.305000,1800
1055.305500,1791
1055.306000,1792
1055.306500,1792
1055.307000,1788
1055.307500,1792
1055.308000,1793
1055.308500,1786
1055.309000,1800
1055.309500,1806
1055.310000,1795
1055.310500,1800
1055.311000,1794
1055.311500,1799
1055.312000,1803
1055.312500,1804
1055.313000,1806
1055.313500,1801
1055.314000,1800
1055.314500,1802
1055.315000,1798
1055.315500,1802
1055.316000,1795
1055.316500,1796
1055.317000,1796
1055.317500,1791
1055.318000,1781
1055.318500,1789
1055.319000,1795
1055.319500,1789
1055.320000,1798
1055.320500,1794
1055.321000,1806
1055.321500,1799
1055.322000,1797
1055.322500,1794
1055.323000,1800
1055.323500,1797
1055.324000,1795
1055.324500,1798
1055.325000,1796
1055.325500,1795
1055.326000,1801
1055.326500,1783
1055.327000,1803
1055.327500,1799
1055.328000,1794
1055.328500,1799
1055.329000,1787
1055.329500,1799
1055.330000,1805
1055.330500,1784
1055.331000,1793
1055.331500,1790
1055.332000,1786
1055.332500,1791
1055.333000,1793
1055.333500,1794
1055.334000,1793
1055.334500,1793
1055.335000,1794
1055.335500,1791
1055.336000,1795
1055.336500,1799
1055.337000,1790
1055.337500,1801
1055.338000,1803
1055.338500,1805
1055.339000,1805
1055.339500,1803
1055.340000,1805
1055.340500,1797
1055.341000,1798
1055.341500,1790
1055.342000,1799
1055.342500,1795
1055.343000,1790
1055.343500,1782
1055.344000,1799
1055.344500,1801
1055.345000,1812
1055.345500,1802
1055.346000,1789
1055.346500,1795
1055.347000,1792
1055.347500,1791
1055.348000,1789
1055.348500,1795
1055.349000,1791
1055.349500,1789
1055.350000,1799
1055.350500,1796
1055.351000,1789
1055.351500,1790
1055.352000,1800
1055.352500,1796
1055.353000,1794
1055.353500,1796
1055.354000,1796
1055.354500,1795
1055.355000,1797
1055.355500,1793
1055.356000,1797
1055.356500,1798
1055.357000,1785
1055.357500,1793
1055.358000,1809
1055.358500,1794
1055.359000,1787
1055.359500,1796
1055.360000,1793
1055.360500,1800
1055.361000,1794
1055.361500,1794
1055.362000,1791
1055.362500,1793
1055.363000,1789
1055.363500,1795
1055.364000,1803
1055.364500,1795
1055.365000,1796
1055.365500,1796
1055.366000,1800
1055.366500,1816
1055.367000,1800
1055.367500,1802
1055.368000,1800
1055.368500,1800
1055.369000,1793
1055.369500,1786
1055.370000,1792
1055.370500,1790
1055.371000,1805
1055.371500,1796
1055.372000,1792
1055.372500,1792
1055.373000,1800
1055.373500,1798
1055.374000,1794
1055.374500,1802
1055.375000,1785
1055.375500,1803
1055.376000,1795
1055.376500,1795
1055.377000,1797
1055.377500,1805
1055.378000,1798
1055.378500,1792
1055.379000,1794
1055.379500,1785
1055.380000,1797
1055.380500,1790
1055.381000,1807
1055.381500,1799
1055.382000,1793
1055.382500,1798
1055.383000,1797
1055.383500,1785
1055.384000,1794
1055.384500,1796
1055.385000,1798
1055.385500,1797
1055.386000,1801
1055.386500,1792
1055.387000,1797
1055.387500,1800
1055.388000,1799
1055.388500,1791
1055.389000,1788
1055.389500,1805
1055.390000,1795
1055.390500,1800
1055.391000,1797
1055.391500,1798
1055.392000,1780
1055.392500,1796
1055.393000,1807
1055.393500,1800
1055.394000,1791
1055.394500,1797
1055.395000,1794
1055.395500,1809
1055.396000,1804
1055.396500,1801
1055.397000,1797
1055.397500,1781
1055.398000,1797
1055.398500,1803
1055.399000,1794
1055.399500,1798
1055.400000,1795
1055.400500,1790
1055.401000,1800
1055.401500,1792
1055.402000,1793
1055.402500,1797
1055.403000,1799
1055.403500,1793
1055.404000,1792
1055.404500,1795
1055.405000,1799
1055.405500,1795
1055.406000,1798
1055.406500,1800
1055.407000,1790
1055.407500,1791
1055.408000,1790
1055.408500,1794
1055.409000,1792
1055.409500,1793
1055.410000,1795
1055.410500,1802
1055.411000,1799
1055.411500,1795
1055.412000,1796
1055.412500,1793
1055.413000,1791
1055.413500,1799
1055.414000,1799
1055.414500,1794
1055.415000,1780
1055.415500,1793
1055.416000,1790
1055.416500,1794
1055.417000,1787
1055.417500,1792
1055.418000,1804
1055.418500,1794
1055.419000,1794
1055.419500,1796
1055.420000,1784
1055.420500,1786
1055.421000,1794
1055.421500,1795
1055.422000,1792
1055.422500,1800
1055.423000,1794
1055.423500,1798
1055.424000,1793
1055.424500,1797
1055.425000,1795
1055.425500,1796
1055.426000,1792
1055.426500,1800
1055.427000,1794
1055.427500,1792
1055.428000,1795
1055.428500,1800
1055.429000,1796
1055.429500,1792
1055.430000,1795
1055.430500,1792
1055.431000,1799
1055.431500,1796
1055.432000,1798
1055.432500,1794
1055.433000,1796
1055.433500,1796
1055.434000,1796
1055.434500,1794
1055.435000,1794
1055.435500,1792
1055.436000,1792
1055.436500,1793
1055.437000,1793
1055.437500,1808
1055.438000,1786
1055.438500,1791
1055.439000,1791
1055.439500,1798
1055.440000,1798
1055.440500,1796
1055.441000,1795
1055.441500,1798
1055.442000,1793
1055.442500,1791
1055.443000,1794
1055.443500,1797
1055.444000,1791
1055.444500,1795
1055.445000,1794
1055.445500,1792
1055.446000,1793
1055.446500,1801
1055.447000,1796
1055.447500,1793
1055.448000,1795
1055.448500,1795
1055.449000,1799
1055.449500,1795
1055.450000,1787
1055.450500,1799
1055.451000,1797
1055.451500,1792
1055.452000,1792
1055.452500,1780
1055.453000,1797
1055.453500,1796
1055.454000,1795
1055.454500,1796
1055.455000,1794
1055.455500,1802
1055.456000,1798
1055.456500,1791
1055.457000,1798
1055.457500,1814
1055.458000,1796
1055.458500,1792
1055.459000,1790
1055.459500,1786
1055.460000,1799
1055.460500,1790
1055.461000,1798
1055.461500,1794
1055.462000,1791
1055.462500,1800
1055.463000,1787
1055.463500,1787
1055.464000,1797
1055.464500,1791
1055.465000,1791
1055.465500,1796
1055.466000,1822
1055.466500,1791
1055.467000,1792
1055.467500,1794
1055.468000,1793
1055.468500,1790
1055.469000,1793
1055.469500,1793
1055.470000,1800
1055.470500,1792
1055.471000,1794
1055.471500,1791
1055.472000,1779
1055.472500,1800
1055.473000,1797
1055.473500,1797
1055.474000,1794
1055.474500,1800
1055.475000,1802
1055.475500,1793
1055.476000,1799
1055.476500,1792
1055.477000,1792
1055.477500,1794
1055.478000,1792
1055.478500,1787
1055.479000,1801
1055.479500,1795
1055.480000,1801
1055.480500,1782
1055.481000,1796
1055.481500,1792
1055.482000,1791
1055.482500,1800
1055.483000,1799
1055.483500,1785
1055.484000,1794
1055.484500,1792
1055.485000,1790
1055.485500,1790
1055.486000,1803
1055.486500,1797
1055.487000,1797
1055.487500,1805
1055.488000,1798
1055.488500,1798
1055.489000,1792
1055.489500,1801
1055.490000,1793
1055.490500,1807
1055.491000,1796
1055.491500,1791
1055.492000,1795
1055.492500,1798
1055.493000,1800
1055.493500,1801
1055.494000,1798
1055.494500,1793
1055.495000,1787
1055.495500,1797
1055.496000,1798
1055.496500,1793
1055.497000,1800
1055.497500,1808
1055.498000,1795
1055.498500,1786
1055.499000,1789
1055.499500,1795
1055.500000,1791
1055.500500,1793
1055.501000,1795
1055.501500,1799
1055.502000,1789
1055.502500,1791
1055.503000,1790
1055.503500,1800
1055.504000,1792
1055.504500,1791
1055.505000,1794
1055.505500,1793
1055.506000,1806
1055.506500,1793
1055.507000,1794
1055.507500,1793
1055.508000,1792
1055.508500,1790
1055.509000,1789
1055.509500,1792
1055.510000,1800
1055.510500,1795
1055.511000,1792
1055.511500,1787
1055.512000,1798
1055.512500,1793
1055.513000,1793
1055.513500,1798
1055.514000,1798
1055.514500,1787
1055.515000,1797
1055.515500,1789
1055.516000,1796
1055.516500,1797
1055.517000,1796
1055.517500,1792
1055.518000,1798
1055.518500,1791
1055.519000,1801
1055.519500,1789
1055.520000,1787
1055.520500,1805
1055.521000,1789
1055.521500,1796
1055.522000,1797
1055.522500,1797
1055.523000,1789
1055.523500,1788
1055.524000,1793
1055.524500,1793
1055.525000,1792
1055.525500,1790
1055.526000,1789
1055.526500,1793
1055.527000,1794
1055.527500,1795
1055.528000,1794
1055.528500,1793
1055.529000,1805
1055.529500,1794
1055.530000,1775
1055.530500,1796
1055.531000,1798
1055.531500,1790
1055.532000,1792
1055.532500,1801
1055.533000,1801
1055.533500,1798
1055.534000,1798
1055.534500,1798
1055.535000,1811
1055.535500,1807
1055.536000,1797
1055.536500,1790
1055.537000,1796
1055.537500,1788
1055.538000,1793
1055.538500,1791
1055.539000,1797
1055.539500,1797
1055.540000,1800
1055.540500,1795
1055.541000,1781
1055.541500,1800
1055.542000,1786
1055.542500,1797
1055.543000,1792
1055.543500,1792
1055.544000,1796
1055.544500,1798
1055.545000,1787
1055.545500,1799
1055.546000,1800
1055.546500,1790
1055.547000,1797
1055.547500,1793
1055.548000,1790
1055.548500,1793
1055.549000,1789
1055.549500,1791
1055.550000,1796
1055.550500,1796
1055.551000,1802
1055.551500,1797
1055.552000,1784
1055.552500,1795
1055.553000,1800
1055.553500,1796
1055.554000,1795
1055.554500,1795
1055.555000,1795
1055.555500,1801
1055.556000,1800
1055.556500,1796
1055.557000,1788
1055.557500,1801
1055.558000,1782
1055.558500,1786
1055.559000,1793
1055.559500,1803
1055.560000,1794
1055.560500,1788
1055.561000,1798
1055.561500,1791
1055.562000,1790
1055.562500,1791
1055.563000,1802
1055.563500,1787
1055.564000,1799
1055.564500,1794
1055.565000,1798
1055.565500,1794
1055.566000,1797
1055.566500,1797
1055.567000,1795
1055.567500,1799
1055.568000,1799
1055.568500,1798
1055.569000,1793
1055.569500,1800
1055.570000,1794
1055.570500,1795
1055.571000,1798
1055.571500,1795
1055.572000,1800
1055.572500,1808
1055.573000,1790
1055.573500,1798
1055.574000,1802
1055.574500,1795
1055.575000,1802
1055.575500,1796
1055.576000,1798
1055.576500,1795
1055.577000,1798
1055.577500,1800
1055.578000,1786
1055.578500,1782
1055.579000,1794
1055.579500,1787
1055.580000,1794
1055.580500,1805
1055.581000,1797
1055.581500,1793
1055.582000,1802
1055.582500,1805
1055.583000,1801
1055.583500,1794
1055.584000,1796
1055.584500,1787
1055.585000,1799
1055.585500,1796
1055.586000,1794
1055.586500,1789
1055.587000,1794
1055.587500,1785
1055.588000,1789
1055.588500,1799
1055.589000,1784
1055.589500,1791
1055.590000,1797
1055.590500,1800
1055.591000,1796
1055.591500,1795
1055.592000,1797
1055.592500,1800
1055.593000,1795
1055.593500,1795
1055.594000,1797
1055.594500,1795
1055.595000,1793
1055.595500,1794
1055.596000,1795
1055.596500,1787
1055.597000,1797
1055.597500,1802
1055.598000,1797
1055.598500,1786
1055.599000,1778
1055.599500,1795
1055.600000,1798
1055.600500,1801
1055.601000,1802
1055.601500,1787
1055.602000,1797
1055.602500,1797
1055.603000,1791
1055.603500,1789
1055.604000,1796
1055.604500,1793
1055.605000,1798
1055.605500,1796
1055.606000,1794
1055.606500,1794
1055.607000,1806
1055.607500,1774
1055.608000,1794
1055.608500,1797
1055.609000,1799
1055.609500,1791
1055.610000,1792
1055.610500,1792
1055.611000,1798
1055.611500,1792
1055.612000,1797
1055.612500,1792
1055.613000,1791
1055.613500,1794
1055.614000,1797
1055.614500,1793
1055.615000,1794
1055.615500,1797
1055.616000,1793
1055.616500,1803
1055.617000,1800
1055.617500,1802
1055.618000,1791
1055.618500,1785
1055.619000,1794
1055.619500,1792
1055.620000,1789
1055.620500,1805
1055.621000,1797
1055.621500,1794
1055.622000,1803
1055.622500,1805
1055.623000,1796
1055.623500,1791
1055.624000,1793
1055.624500,1801
1055.625000,1789
1055.625500,1798
1055.626000,1799
1055.626500,1789
1055.627000,1794
1055.627500,1795
1055.628000,1794
1055.628500,1795
1055.629000,1788
1055.629500,1797
1055.630000,1793
1055.630500,1795
1055.631000,1799
1055.631500,1798
1055.632000,1796
1055.632500,1799
1055.633000,1810
1055.633500,1798
1055.634000,1793
1055.634500,1791
1055.635000,1797
1055.635500,1799
1055.636000,1795
1055.636500,1793
1055.637000,1795
1055.637500,1787
1055.638000,1788
1055.638500,1792
1055.639000,1796
1055.639500,1800
1055.640000,1802
1055.640500,1800
1055.641000,1792
1055.641500,1807
1055.642000,1790
1055.642500,1794
1055.643000,1802
1055.643500,1798
1055.644000,1788
1055.644500,1800
1055.645000,1807
1055.645500,1803
1055.646000,1794
1055.646500,1792
1055.647000,1794
1055.647500,1793
1055.648000,1792
1055.648500,1787
1055.649000,1788
1055.649500,1793
1055.650000,1802
1055.650500,1791
1055.651000,1786
1055.651500,1795
1055.652000,1790
1055.652500,1808
1055.653000,1799
1055.653500,1798
1055.654000,1796
1055.654500,1795
1055.655000,1805
1055.655500,1791
1055.656000,1785
1055.656500,1800
1055.657000,1787
1055.657500,1789
1055.658000,1794
1055.658500,1781
1055.659000,1798
1055.659500,1795
1055.660000,1792
1055.660500,1803
1055.661000,1785
1055.661500,1788
1055.662000,1794
1055.662500,1797
1055.663000,1789
1055.663500,1792
1055.664000,1793
1055.664500,1793
1055.665000,1794
1055.665500,1794
1055.666000,1792
1055.666500,1790
1055.667000,1792
1055.667500,1784
1055.668000,1795
1055.668500,1798
1055.669000,1790
1055.669500,1803
1055.670000,1806
1055.670500,1802
1055.671000,1788
1055.671500,1795
1055.672000,1778
1055.672500,1794
1055.673000,1794
1055.673500,1795
1055.674000,1802
1055.674500,1789
1055.675000,1799
1055.675500,1798
1055.676000,1790
1055.676500,1792
1055.677000,1799
1055.677500,1792
1055.678000,1792
1055.678500,1797
1055.679000,1794
1055.679500,1801
1055.680000,1800
1055.680500,1789
1055.681000,1794
1055.681500,1787
1055.682000,1793
1055.682500,1793
1055.683000,1765
1055.683500,1798
1055.684000,1795
1055.684500,1791
1055.685000,1785
1055.685500,1797
1055.686000,1794
1055.686500,1794
1055.687000,1794
1055.687500,1792
1055.688000,1798
1055.688500,1796
1055.689000,1806
1055.689500,1799
1055.690000,1789
1055.690500,1796
1055.691000,1805
1055.691500,1782
1055.692000,1798
1055.692500,1798
1055.693000,1794
1055.693500,1797
1055.694000,1797
1055.694500,1795
1055.695000,1791
1055.695500,1802
1055.696000,1794
1055.696500,1790
1055.697000,1794
1055.697500,1798
1055.698000,1792
1055.698500,1786
1055.699000,1792
1055.699500,1783
1055.700000,1787
1055.700500,1795
1055.701000,1801
1055.701500,1791
1055.702000,1796
1055.702500,1801
1055.703000,1796
1055.703500,1792
1055.704000,1797
1055.704500,1795
1055.705000,1788
1055.705500,1794
1055.706000,1792
1055.706500,1788
1055.707000,1795
1055.707500,1790
1055.708000,1793
1055.708500,1790
1055.709000,1792
1055.709500,1789
1055.710000,1795
1055.710500,1800
1055.711000,1811
1055.711500,1792
1055.712000,1800
1055.712500,1797
1055.713000,1798
1055.713500,1797
1055.714000,1799
1055.714500,1799
1055.715000,1789
1055.715500,1788
1055.716000,1808
1055.716500,1797
1055.717000,1806
1055.717500,1803
1055.718000,1788
1055.718500,1787
1055.719000,1799
1055.719500,1776
1055.720000,1800
1055.720500,1799
1055.721000,1796
1055.721500,1794
1055.722000,1802
1055.722500,1800
1055.723000,1800
1055.723500,1791
1055.724000,1796
1055.724500,1798
1055.725000,1792
1055.725500,1820
1055.726000,1797
1055.726500,1789
1055.727000,1787
1055.727500,1794
1055.728000,1802
1055.728500,1786
1055.729000,1793
1055.729500,1794
1055.730000,1797
1055.730500,1803
1055.731000,1800
1055.731500,1793
1055.732000,1794
1055.732500,1791
1055.733000,1800
1055.733500,1798
1055.734000,1799
1055.734500,1790
1055.735000,1796
1055.735500,1786
1055.736000,1792
1055.736500,1796
1055.737000,1791
1055.737500,1791
1055.738000,1793
1055.738500,1796
1055.739000,1802
1055.739500,1798
1055.740000,1790
1055.740500,1794
1055.741000,1796
1055.741500,1798
1055.742000,1801
1055.742500,1792
1055.743000,1791
1055.743500,1795
1055.744000,1792
1055.744500,1798
1055.745000,1803
1055.745500,1791
1055.746000,1799
1055.746500,1797
1055.747000,1791
1055.747500,1797
1055.748000,1793
1055.748500,1814
1055.749000,1790
1055.749500,1794
1055.750000,1797
1055.750500,1792
1055.751000,1786
1055.751500,1796
1055.752000,1801
1055.752500,1798
1055.753000,1799
1055.753500,1795
1055.754000,1793
1055.754500,1788
1055.755000,1792
1055.755500,1800
1055.756000,1803
1055.756500,1792
1055.757000,1782
1055.757500,1790
1055.758000,1800
1055.758500,1795
1055.759000,1795
1055.759500,1802
1055.760000,1790
1055.760500,1798
1055.761000,1794
1055.761500,1796
1055.762000,1793
1055.762500,1800
1055.763000,1782
1055.763500,1789
1055.764000,1793
1055.764500,1800
1055.765000,1796
1055.765500,1797
1055.766000,1797
1055.766500,1793
1055.767000,1791
1055.767500,1793
1055.768000,1786
1055.768500,1791
1055.769000,1793
1055.769500,1793
1055.770000,1804
1055.770500,1795
1055.771000,1792
1055.771500,1802
1055.772000,1796
1055.772500,1797
1055.773000,1790
1055.773500,1796
1055.774000,1792
1055.774500,1795
1055.775000,1803
1055.775500,1795
1055.776000,1800
1055.776500,1791
1055.777000,1795
1055.777500,1794
1055.778000,1801
1055.778500,1791
1055.779000,1795
1055.779500,1778
1055.780000,1804
1055.780500,1796
1055.781000,1798
1055.781500,1788
1055.782000,1792
1055.782500,1789
1055.783000,1792
1055.783500,1793
1055.784000,1794
1055.784500,1793
1055.785000,1789
1055.785500,1796
1055.786000,1796
1055.786500,1793
1055.787000,1797
1055.787500,1788
1055.788000,1785
1055.788500,1793
1055.789000,1792
1055.789500,1793
1055.790000,1791
1055.790500,1805
1055.791000,1806
1055.791500,1790
1055.792000,1795
1055.792500,1803
1055.793000,1798
1055.793500,1817
1055.794000,1792
1055.794500,1797
1055.795000,1795
1055.795500,1792
1055.796000,1798
1055.796500,1793
1055.797000,1796
1055.797500,1792
1055.798000,1797
1055.798500,1787
1055.799000,1789
1055.799500,1793
1055.800000,1803
1055.800500,1796
1055.801000,1794
1055.801500,1797
1055.802000,1790
1055.802500,1796
1055.803000,1791
1055.803500,1800
1055.804000,1797
1055.804500,1792
1055.805000,1797
1055.805500,1799
1055.806000,1791
1055.806500,1791
1055.807000,1788
1055.807500,1802
1055.808000,1800
1055.808500,1791
1055.809000,1798
1055.809500,1791
1055.810000,1801
1055.810500,1797
1055.811000,1794
1055.811500,1796
1055.812000,1793
1055.812500,1789
1055.813000,1788
1055.813500,1796
1055.814000,1799
1055.814500,1794
1055.815000,1800
1055.815500,1787
1055.816000,1800
1055.816500,1796
1055.817000,1801
1055.817500,1799
1055.818000,1798
1055.818500,1794
1055.819000,1805
1055.819500,1799
1055.820000,1799
1055.820500,1808
1055.821000,1795
1055.821500,1787
1055.822000,1794
1055.822500,1784
1055.823000,1792
1055.823500,1793
1055.824000,1781
1055.824500,1795
1055.825000,1793
1055.825500,1793
1055.826000,1800
1055.826500,1797
1055.827000,1798
1055.827500,1791
1055.828000,1793
1055.828500,1797
1055.829000,1799
1055.829500,1790
1055.830000,1820
1055.830500,1795
1055.831000,1800
1055.831500,1795
1055.832000,1799
1055.832500,1812
1055.833000,1797
1055.833500,1794
1055.834000,1797
1055.834500,1797
1055.835000,1799
1055.835500,1798
1055.836000,1797
1055.836500,1793
1055.837000,1787
1055.837500,1794
1055.838000,1797
1055.838500,1800
1055.839000,1794
1055.839500,1803
1055.840000,1793
1055.840500,1793
1055.841000,1828
1055.841500,1788
1055.842000,1796
1055.842500,1788
1055.843000,1790
1055.843500,1788
1055.844000,1795
1055.844500,1792
1055.845000,1792
1055.845500,1794
1055.846000,1796
1055.846500,1794
1055.847000,1800
1055.847500,1801
1055.848000,1797
1055.848500,1788
1055.849000,1798
1055.849500,1799
1055.850000,1797
1055.850500,1796
1055.851000,1793
1055.851500,1795
1055.852000,1787
1055.852500,1797
1055.853000,1799
1055.853500,1797
1055.854000,1800
1055.854500,1796
1055.855000,1798
1055.855500,1797
1055.856000,1791
1055.856500,1800
1055.857000,1794
1055.857500,1790
1055.858000,1799
1055.858500,1792
1055.859000,1776
1055.859500,1793
1055.860000,1793
1055.860500,1795
1055.861000,1802
1055.861500,1788
1055.862000,1793
1055.862500,1794
1055.863000,1799
1055.863500,1795
1055.864000,1793
1055.864500,1790
1055.865000,1802
1055.865500,1772
1055.866000,1796
1055.866500,1796
1055.867000,1801
1055.867500,1790
1055.868000,1785
1055.868500,1795
1055.869000,1799
1055.869500,1795
1055.870000,1800
1055.870500,1802
1055.871000,1800
1055.871500,1798
1055.872000,1807
1055.872500,1790
1055.873000,1801
1055.873500,1799
1055.874000,1799
1055.874500,1786
1055.875000,1795
1055.875500,1790
1055.876000,1802
1055.876500,1797
1055.877000,1790
1055.877500,1793
1055.878000,1794
1055.878500,1788
1055.879000,1794
1055.879500,1791
1055.880000,1797
1055.880500,1804
1055.881000,1793
1055.881500,1798
1055.882000,1797
1055.882500,1798
1055.883000,1798
1055.883500,1795
1055.884000,1801
1055.884500,1798
1055.885000,1836
1055.885500,1803
1055.886000,1805
1055.886500,1793
1055.887000,1802
1055.887500,1802
1055.888000,1797
1055.888500,1797
1055.889000,1803
1055.889500,1797
1055.890000,1795
1055.890500,1812
1055.891000,1794
1055.891500,1784
1055.892000,1780
1055.892500,1783
1055.893000,1790
1055.893500,1779
1055.894000,1791
1055.894500,1795
1055.895000,1796
1055.895500,1796
1055.896000,1792
1055.896500,1787
1055.897000,1799
1055.897500,1795
1055.898000,1794
1055.898500,1798
1055.899000,1803
1055.899500,1791
1055.900000,1793
1055.900500,1787
1055.901000,1790
1055.901500,1780
1055.902000,1782
1055.902500,1803
1055.903000,1794
1055.903500,1792
1055.904000,1793
1055.904500,1799
1055.905000,1798
1055.905500,1797
1055.906000,1801
1055.906500,1793
1055.907000,1798
1055.907500,1795
1055.908000,1791
1055.908500,1799
1055.909000,1800
1055.909500,1797
1055.910000,1796
1055.910500,1788
1055.911000,1795
1055.911500,1792
1055.912000,1785
1055.912500,1804
1055.913000,1804
1055.913500,1802
1055.914000,1801
1055.914500,1800
1055.915000,1795
1055.915500,1799
1055.916000,1810
1055.916500,1799
1055.917000,1800
1055.917500,1806
1055.918000,1822
1055.918500,1799
1055.919000,1775
1055.919500,1802
1055.920000,1793
1055.920500,1783
1055.921000,1782
1055.921500,1788
1055.922000,1792
1055.922500,1793
1055.923000,1796
1055.923500,1787
1055.924000,1791
1055.924500,1795
1055.925000,1807
1055.925500,1795
1055.926000,1802
1055.926500,1806
1055.927000,1799
1055.927500,1797
1055.928000,1798
1055.928500,1786
1055.929000,1790
1055.929500,1787
1055.930000,1786
1055.930500,1783
1055.931000,1794
1055.931500,1794
1055.932000,1792
1055.932500,1782
1055.933000,1796
1055.933500,1803
1055.934000,1789
1055.934500,1789
1055.935000,1804
1055.935500,1799
1055.936000,1822
1055.936500,1804
1055.937000,1802
1055.937500,1799
1055.938000,1796
1055.938500,1796
1055.939000,1795
1055.939500,1806
1055.940000,1802
1055.940500,1802
1055.941000,1798
1055.941500,1799
1055.942000,1800
1055.942500,1805
1055.943000,1811
1055.943500,1819
1055.944000,1822
1055.944500,1836
1055.945000,1810
1055.945500,1800
1055.946000,1792
1055.946500,1806
1055.947000,1801
1055.947500,1800
1055.948000,1790
1055.948500,1774
1055.949000,1762
1055.949500,1748
1055.950000,1763
1055.950500,1769
1055.951000,1782
1055.951500,1798
1055.952000,1810
1055.952500,1803
1055.953000,1782
1055.953500,1800
1055.954000,1797
1055.954500,1794
1055.955000,1797
1055.955500,1806
1055.956000,1797
1055.956500,1793
1055.957000,1798
1055.957500,1779
1055.958000,1781
1055.958500,1768
1055.959000,1764
1055.959500,1757
1055.960000,1778
1055.960500,1789
1055.961000,1806
1055.961500,1811
1055.962000,1815
1055.962500,1814
1055.963000,1807
1055.963500,1810
1055.964000,1803
1055.964500,1802
1055.965000,1822
1055.965500,1808
1055.966000,1810
1055.966500,1818
1055.967000,1829
1055.967500,1823
1055.968000,1822
1055.968500,1821
1055.969000,1813
1055.969500,1810
1055.970000,1804
1055.970500,1790
1055.971000,1775
1055.971500,1761
1055.972000,1757
1055.972500,1740
1055.973000,1743
1055.973500,1755
1055.974000,1776
1055.974500,1784
1055.975000,1784
1055.975500,1800
1055.976000,1821
1055.976500,1814
1055.977000,1819
1055.977500,1820
1055.978000,1811
1055.978500,1827
1055.979000,1811
1055.979500,1798
1055.980000,1792
1055.980500,1778
1055.981000,1765
1055.981500,1744
1055.982000,1754
1055.982500,1766
1055.983000,1783
1055.983500,1807
1055.984000,1818
1055.984500,1823
1055.985000,1815
1055.985500,1817
1055.986000,1818
1055.986500,1807
1055.987000,1803
1055.987500,1787
1055.988000,1793
1055.988500,1794
1055.989000,1782
1055.989500,1782
1055.990000,1785
1055.990500,1792
1055.991000,1783
1055.991500,1769
1055.992000,1773
1055.992500,1764
1055.993000,1762
1055.993500,1765
1055.994000,1775
1055.994500,1787
1055.995000,1804
1055.995500,1796
1055.996000,1832
1055.996500,1853
1055.997000,1858
1055.997500,1875
1055.998000,1876
1055.998500,1860
1055.999000,1860
1055.999500,1856
1056.000000,1822
1056.000500,1800
1056.001000,1772
1056.001500,1754
1056.002000,1724
1056.002500,1721
1056.003000,1738
1056.003500,1745
1056.004000,1781
1056.004500,1773
1056.005000,1770
1056.005500,1774
1056.006000,1770
1056.006500,1770
1056.007000,1792
1056.007500,1819
1056.008000,1829
1056.008500,1822
1056.009000,1808
1056.009500,1790
1056.010000,1777
1056.010500,1764
1056.011000,1733
1056.011500,1739
1056.012000,1748
1056.012500,1762
1056.013000,1787
1056.013500,1809
1056.014000,1808
1056.014500,1818
1056.015000,1819
1056.015500,1809
1056.016000,1789
1056.016500,1761
1056.017000,1739
1056.017500,1751
1056.018000,1754
1056.018500,1769
1056.019000,1802
1056.019500,1833
1056.020000,1836
1056.020500,1857
1056.021000,1888
1056.021500,1870
1056.022000,1870
1056.022500,1875
1056.023000,1867
1056.023500,1844
1056.024000,1804
1056.024500,1758
1056.025000,1705
1056.025500,1702
1056.026000,1734
1056.026500,1766
1056.027000,1788
1056.027500,1790
1056.028000,1803
1056.028500,1829
1056.029000,1841
1056.029500,1859
1056.030000,1833
1056.030500,1801
1056.031000,1767
1056.031500,1761
1056.032000,1771
1056.032500,1773
1056.033000,1780
1056.033500,1769
1056.034000,1770
1056.034500,1790
1056.035000,1809
1056.035500,1815
1056.036000,1836
1056.036500,1823
1056.037000,1820
1056.037500,1824
1056.038000,1843
1056.038500,1828
1056.039000,1814
1056.039500,1807
1056.040000,1799
1056.040500,1752
1056.041000,1713
1056.041500,1702
1056.042000,1710
1056.042500,1724
1056.043000,1732
1056.043500,1753
1056.044000,1788
1056.044500,1777
1056.045000,1788
1056.045500,1801
1056.046000,1819
1056.046500,1807
1056.047000,1805
1056.047500,1803
1056.048000,1796
1056.048500,1786
1056.049000,1777
1056.049500,1763
1056.050000,1753
1056.050500,1775
1056.051000,1790
1056.051500,1797
1056.052000,1803
1056.052500,1809
1056.053000,1815
1056.053500,1817
1056.054000,1817
1056.054500,1811
1056.055000,1813
1056.055500,1794
1056.056000,1798
1056.056500,1766
1056.057000,1765
1056.057500,1769
1056.058000,1783
1056.058500,1778
1056.059000,1760
1056.059500,1770
1056.060000,1817
1056.060500,1846
1056.061000,1871
1056.061500,1906
1056.062000,1921
1056.062500,1903
1056.063000,1878
1056.063500,1859
1056.064000,1829
1056.064500,1815
1056.065000,1784
1056.065500,1764
1056.066000,1716
1056.066500,1699
1056.067000,1694
1056.067500,1708
1056.068000,1711
1056.068500,1711
1056.069000,1742
1056.069500,1766
1056.070000,1783
1056.070500,1791
1056.071000,1818
1056.071500,1819
1056.072000,1834
1056.072500,1844
1056.073000,1842
1056.073500,1833
1056.074000,1824
1056.074500,1809
1056.075000,1776
1056.075500,1772
1056.076000,1774
1056.076500,1781
1056.077000,1806
1056.077500,1799
1056.078000,1806
1056.078500,1798
1056.079000,1793
1056.079500,1796
1056.080000,1806
1056.080500,1801
1056.081000,1788
1056.081500,1759
1056.082000,1708
1056.082500,1702
1056.083000,1740
1056.083500,1768
1056.084000,1782
1056.084500,1781
1056.085000,1786
1056.085500,1816
1056.086000,1842
1056.086500,1834
1056.087000,1838
1056.087500,1837
1056.088000,1864
1056.088500,1878
1056.089000,1884
1056.089500,1850
1056.090000,1783
1056.090500,1744
1056.091000,1755
1056.091500,1787
1056.092000,1782
1056.092500,1780
1056.093000,1789
1056.093500,1787
1056.094000,1745
1056.094500,1725
1056.095000,1747
1056.095500,1781
1056.096000,1796
1056.096500,1819
1056.097000,1857
1056.097500,1877
1056.098000,1881
1056.098500,1881
1056.099000,1858
1056.099500,1791
1056.100000,1747
1056.100500,1683
1056.101000,1662
1056.101500,1677
1056.102000,1696
1056.102500,1723
1056.103000,1739
1056.103500,1757
1056.104000,1763
1056.104500,1786
1056.105000,1819
1056.105500,1850
1056.106000,1833
1056.106500,1812
1056.107000,1844
1056.107500,1908
1056.108000,1964
1056.108500,1973
1056.109000,1926
1056.109500,1868
1056.110000,1832
1056.110500,1827
1056.111000,1831
1056.111500,1867
1056.112000,1876
1056.112500,1858
1056.113000,1828
1056.113500,1796
1056.114000,1750
1056.114500,1708
1056.115000,1735
1056.115500,1798
1056.116000,1818
1056.116500,1784
1056.117000,1754
1056.117500,1700
1056.118000,1684
1056.118500,1652
1056.119000,1625
1056.119500,1595
1056.120000,1659
1056.120500,1707
1056.121000,1747
1056.121500,1768
1056.122000,1769
1056.122500,1777
1056.123000,1792
1056.123500,1801
1056.124000,1825
1056.124500,1836
1056.125000,1825
1056.125500,1786
1056.126000,1782
1056.126500,1778
1056.127000,1787
1056.127500,1818
1056.128000,1824
1056.128500,1823
1056.129000,1805
1056.129500,1783
1056.130000,1760
1056.130500,1850
1056.131000,1900
1056.131500,1887
1056.132000,1850
1056.132500,1818
1056.133000,1814
1056.133500,1819
1056.134000,1799
1056.134500,1734
1056.135000,1676
1056.135500,1670
1056.136000,1780
1056.136500,1895
1056.137000,1957
1056.137500,1972
1056.138000,1999
1056.138500,1965
1056.139000,1880
1056.139500,1750
1056.140000,1621
1056.140500,1575
1056.141000,1621
1056.141500,1695
1056.142000,1753
1056.142500,1776
1056.143000,1736
1056.143500,1734
1056.144000,1762
1056.144500,1786
1056.145000,1799
1056.145500,1820
1056.146000,1822
1056.146500,1802
1056.147000,1838
1056.147500,1852
1056.148000,1861
1056.148500,1857
1056.149000,1805
1056.149500,1788
1056.150000,1801
1056.150500,1791
1056.151000,1790
1056.151500,1782
1056.152000,1817
1056.152500,1842
1056.153000,1834
1056.153500,1808
1056.154000,1787
1056.154500,1779
1056.155000,1786
1056.155500,1881
1056.156000,1939
1056.156500,1913
1056.157000,1862
1056.157500,1818
1056.158000,1693
1056.158500,1542
1056.159000,1465
1056.159500,1463
1056.160000,1552
1056.160500,1687
1056.161000,1770
1056.161500,1831
1056.162000,1879
1056.162500,1920
1056.163000,1920
1056.163500,1910
1056.164000,1858
1056.164500,1847
1056.165000,1912
1056.165500,1949
1056.166000,1966
1056.166500,1903
1056.167000,1841
1056.167500,1798
1056.168000,1844
1056.168500,1911
1056.169000,1942
1056.169500,1869
1056.170000,1793
1056.170500,1743
1056.171000,1758
1056.171500,1725
1056.172000,1754
1056.172500,1793
1056.173000,1823
1056.173500,1851
1056.174000,1863
1056.174500,1803
1056.175000,1790
1056.175500,1793
1056.176000,1792
1056.176500,1776
1056.177000,1781
1056.177500,1765
1056.178000,1745
1056.178500,1695
1056.179000,1638
1056.179500,1611
1056.180000,1648
1056.180500,1703
1056.181000,1777
1056.181500,1891
1056.182000,1948
1056.182500,1933
1056.183000,1887
1056.183500,1880
1056.184000,1852
1056.184500,1737
1056.185000,1619
1056.185500,1602
1056.186000,1600
1056.186500,1563
1056.187000,1548
1056.187500,1662
1056.188000,1796
1056.188500,1808
1056.189000,1723
1056.189500,1676
1056.190000,1661
1056.190500,1774
1056.191000,1933
1056.191500,2072
1056.192000,2124
1056.192500,2119
1056.193000,2020
1056.193500,1904
1056.194000,1748
1056.194500,1668
1056.195000,1681
1056.195500,1764
1056.196000,1833
1056.196500,1859
1056.197000,1829
1056.197500,1797
1056.198000,1805
1056.198500,1768
1056.199000,1775
1056.199500,1858
1056.200000,1919
1056.200500,1902
1056.201000,1837
1056.201500,1763
1056.202000,1654
1056.202500,1614
1056.203000,1585
1056.203500,1607
1056.204000,1706
1056.204500,1827
1056.205000,1877
1056.205500,1817
1056.206000,1735
1056.206500,1714
1056.207000,1754
1056.207500,1776
1056.208000,1760
1056.208500,1706
1056.209000,1696
1056.209500,1724
1056.210000,1709
1056.210500,1703
1056.211000,1734
1056.211500,1773
1056.212000,1813
1056.212500,1874
1056.213000,1902
1056.213500,1922
1056.214000,1914
1056.214500,1883
1056.215000,1832
1056.215500,1735
1056.216000,1702
1056.216500,1729
1056.217000,1762
1056.217500,1747
1056.218000,1748
1056.218500,1811
1056.219000,1879
1056.219500,1883
1056.220000,1829
1056.220500,1840
1056.221000,1842
1056.221500,1818
1056.222000,1808
1056.222500,1800
1056.223000,1789
1056.223500,1797
1056.224000,1805
1056.224500,1801
1056.225000,1781
1056.225500,1759
1056.226000,1740
1056.226500,1718
1056.227000,1737
1056.227500,1769
1056.228000,1777
1056.228500,1804
1056.229000,1789
1056.229500,1777
1056.230000,1753
1056.230500,1749
1056.231000,1739
1056.231500,1762
1056.232000,1837
1056.232500,1891
1056.233000,1905
1056.233500,1851
1056.234000,1762
1056.234500,1727
1056.235000,1737
1056.235500,1744
1056.236000,1736
1056.236500,1753
1056.237000,1789
1056.237500,1825
1056.238000,1879
1056.238500,1912
1056.239000,1924
1056.239500,1891
1056.240000,1826
1056.240500,1731
1056.241000,1652
1056.241500,1625
1056.242000,1671
1056.242500,1706
1056.243000,1719
1056.243500,1734
1056.244000,1774
1056.244500,1818
1056.245000,1835
1056.245500,1872
1056.246000,1931
1056.246500,2002
1056.247000,1985
1056.247500,1942
1056.248000,1841
1056.248500,1701
1056.249000,1647
1056.249500,1692
1056.250000,1829
1056.250500,1927
1056.251000,1915
1056.251500,1827
1056.252000,1782
1056.252500,1792
1056.253000,1797
1056.253500,1763
1056.254000,1756
1056.254500,1794
1056.255000,1838
1056.255500,1815
1056.256000,1828
1056.256500,1827
1056.257000,1801
1056.257500,1800
1056.258000,1797
1056.258500,1710
1056.259000,1650
1056.259500,1654
1056.260000,1727
1056.260500,1773
1056.261000,1777
1056.261500,1769
1056.262000,1788
1056.262500,1786
1056.263000,1813
1056.263500,1864
1056.264000,1890
1056.264500,1897
1056.265000,1871
1056.265500,1849
1056.266000,1819
1056.266500,1815
1056.267000,1817
1056.267500,1808
1056.268000,1845
1056.268500,1903
1056.269000,1944
1056.269500,1947
1056.270000,1903
1056.270500,1861
1056.271000,1805
1056.271500,1745
1056.272000,1619
1056.272500,1511
1056.273000,1544
1056.273500,1630
1056.274000,1716
1056.274500,1789
1056.275000,1805
1056.275500,1785
1056.276000,1808
1056.276500,1800
1056.277000,1748
1056.277500,1702
1056.278000,1707
1056.278500,1788
1056.279000,1853
1056.279500,1876
1056.280000,1851
1056.280500,1837
1056.281000,1826
1056.281500,1804
1056.282000,1784
1056.282500,1790
1056.283000,1824
1056.283500,1818
1056.284000,1845
1056.284500,1872
1056.285000,1879
1056.285500,1850
1056.286000,1791
1056.286500,1745
1056.287000,1758
1056.287500,1784
1056.288000,1780
1056.288500,1733
1056.289000,1719
1056.289500,1660
1056.290000,1615
1056.290500,1617
1056.291000,1675
1056.291500,1732
1056.292000,1751
1056.292500,1831
1056.293000,1894
1056.293500,1931
1056.294000,1942
1056.294500,1853
1056.295000,1761
1056.295500,1699
1056.296000,1792
1056.296500,1880
1056.297000,1872
1056.297500,1799
1056.298000,1788
1056.298500,1826
1056.299000,1820
1056.299500,1801
1056.300000,1716
1056.300500,1669
1056.301000,1704
1056.301500,1787
1056.302000,1853
1056.302500,1902
1056.303000,1924
1056.303500,1958
1056.304000,1991
1056.304500,1961
1056.305000,1905
1056.305500,1864
1056.306000,1817
1056.306500,1749
1056.307000,1710
1056.307500,1693
1056.308000,1692
1056.308500,1694
1056.309000,1715
1056.309500,1722
1056.310000,1742
1056.310500,1765
1056.311000,1796
1056.311500,1810
1056.312000,1831
1056.312500,1826
1056.313000,1844
1056.313500,1857
1056.314000,1839
1056.314500,1814
1056.315000,1787
1056.315500,1759
1056.316000,1730
1056.316500,1699
1056.317000,1680
1056.317500,1697
1056.318000,1727
1056.318500,1778
1056.319000,1849
1056.319500,1863
1056.320000,1859
1056.320500,1775
1056.321000,1753
1056.321500,1813
1056.322000,1953
1056.322500,1992
1056.323000,1979
1056.323500,1975
1056.324000,1959
1056.324500,1913
1056.325000,1824
1056.325500,1789
1056.326000,1816
1056.326500,1813
1056.327000,1764
1056.327500,1712
1056.328000,1681
1056.328500,1699
1056.329000,1709
1056.329500,1699
1056.330000,1694
1056.330500,1697
1056.331000,1774
1056.331500,1836
1056.332000,1867
1056.332500,1849
1056.333000,1815
1056.333500,1784
1056.334000,1832
1056.334500,1853
1056.335000,1846
1056.335500,1838
1056.336000,1771
1056.336500,1638
1056.337000,1558
1056.337500,1613
1056.338000,1672
1056.338500,1750
1056.339000,1817
1056.339500,1858
1056.340000,1858
1056.340500,1840
1056.341000,1821
1056.341500,1797
1056.342000,1832
1056.342500,1870
1056.343000,1862
1056.343500,1826
1056.344000,1779
1056.344500,1744
1056.345000,1717
1056.345500,1706
1056.346000,1755
1056.346500,1824
1056.347000,1903
1056.347500,1951
1056.348000,1886
1056.348500,1734
1056.349000,1634
1056.349500,1679
1056.350000,1723
1056.350500,1780
1056.351000,1822
1056.351500,1852
1056.352000,1902
1056.352500,1939
1056.353000,1922
1056.353500,1848
1056.354000,1864
1056.354500,1849
1056.355000,1782
1056.355500,1707
1056.356000,1681
1056.356500,1718
1056.357000,1777
1056.357500,1878
1056.358000,1950
1056.358500,1902
1056.359000,1809
1056.359500,1741
1056.360000,1715
1056.360500,1745
1056.361000,1803
1056.361500,1788
1056.362000,1758
1056.362500,1759
1056.363000,1738
1056.363500,1726
1056.364000,1722
1056.364500,1758
1056.365000,1772
1056.365500,1797
1056.366000,1838
1056.366500,1863
1056.367000,1874
1056.367500,1867
1056.368000,1844
1056.368500,1829
1056.369000,1809
1056.369500,1838
1056.370000,1897
1056.370500,1909
1056.371000,1868
1056.371500,1742
1056.372000,1612
1056.372500,1540
1056.373000,1621
1056.373500,1719
1056.374000,1772
1056.374500,1824
1056.375000,1862
1056.375500,1830
1056.376000,1842
1056.376500,1878
1056.377000,1911
1056.377500,1914
1056.378000,1884
1056.378500,1854
1056.379000,1794
1056.379500,1797
1056.380000,1876
1056.380500,1898
1056.381000,1861
1056.381500,1823
1056.382000,1827
1056.382500,1808
1056.383000,1802
1056.383500,1783
1056.384000,1749
1056.384500,1715
1056.385000,1731
1056.385500,1744
1056.386000,1751
1056.386500,1730
1056.387000,1693
1056.387500,1673
1056.388000,1720
1056.388500,1738
1056.389000,1782
1056.389500,1789
1056.390000,1803
1056.390500,1790
1056.391000,1784
1056.391500,1799
1056.392000,1832
1056.392500,1856
1056.393000,1859
1056.393500,1860
1056.394000,1862
1056.394500,1845
1056.395000,1828
1056.395500,1801
1056.396000,1775
1056.396500,1755
1056.397000,1775
1056.397500,1785
1056.398000,1777
1056.398500,1781
1056.399000,1761
1056.399500,1760
1056.400000,1764
1056.400500,1768
1056.401000,1771
1056.401500,1772
1056.402000,1783
1056.402500,1786
1056.403000,1839
1056.403500,1860
1056.404000,1895
1056.404500,1930
1056.405000,1967
1056.405500,1985
1056.406000,1903
1056.406500,1772
1056.407000,1739
1056.407500,1801
1056.408000,1812
1056.408500,1771
1056.409000,1797
1056.409500,1820
1056.410000,1805
1056.410500,1759
1056.411000,1702
1056.411500,1676
1056.412000,1641
1056.412500,1696
1056.413000,1766
1056.413500,1773
1056.414000,1755
1056.414500,1758
1056.415000,1806
1056.415500,1912
1056.416000,1944
1056.416500,1917
1056.417000,1889
1056.417500,1797
1056.418000,1675
1056.418500,1643
1056.419000,1730
1056.419500,1770
1056.420000,1802
1056.420500,1857
1056.421000,1877
1056.421500,1863
1056.422000,1854
1056.422500,1798
1056.423000,1747
1056.423500,1743
1056.424000,1788
1056.424500,1808
1056.425000,1782
1056.425500,1747
1056.426000,1747
1056.426500,1763
1056.427000,1791
1056.427500,1798
1056.428000,1776
1056.428500,1778
1056.429000,1806
1056.429500,1812
1056.430000,1841
1056.430500,1888
1056.431000,1914
1056.431500,1862
1056.432000,1826
1056.432500,1808
1056.433000,1788
1056.433500,1766
1056.434000,1719
1056.434500,1634
1056.435000,1623
1056.435500,1694
1056.436000,1805
1056.436500,1816
1056.437000,1798
1056.437500,1766
1056.438000,1769
1056.438500,1771
1056.439000,1764
1056.439500,1767
1056.440000,1796
1056.440500,1784
1056.441000,1776
1056.441500,1775
1056.442000,1769
1056.442500,1812
1056.443000,1807
1056.443500,1804
1056.444000,1802
1056.444500,1810
1056.445000,1798
1056.445500,1814
1056.446000,1851
1056.446500,1875
1056.447000,1851
1056.447500,1813
1056.448000,1795
1056.448500,1813
1056.449000,1805
1056.449500,1818
1056.450000,1842
1056.450500,1826
1056.451000,1798
1056.451500,1775
1056.452000,1753
1056.452500,1714
1056.453000,1713
1056.453500,1730
1056.454000,1753
1056.454500,1746
1056.455000,1772
1056.455500,1863
1056.456000,1926
1056.456500,1931
1056.457000,1862
1056.457500,1759
1056.458000,1748
1056.458500,1816
1056.459000,1876
1056.459500,1887
1056.460000,1882
1056.460500,1855
1056.461000,1792
1056.461500,1750
1056.462000,1738
1056.462500,1746
1056.463000,1743
1056.463500,1775
1056.464000,1803
1056.464500,1854
1056.465000,1901
1056.465500,1898
1056.466000,1873
1056.466500,1836
1056.467000,1772
1056.467500,1726
1056.468000,1726
1056.468500,1752
1056.469000,1757
1056.469500,1736
1056.470000,1742
1056.470500,1768
1056.471000,1793
1056.471500,1779
1056.472000,1776
1056.472500,1755
1056.473000,1756
1056.473500,1759
1056.474000,1779
1056.474500,1786
1056.475000,1813
1056.475500,1839
1056.476000,1844
1056.476500,1835
1056.477000,1864
1056.477500,1917
1056.478000,1923
1056.478500,1880
1056.479000,1819
1056.479500,1770
1056.480000,1719
1056.480500,1725
1056.481000,1748
1056.481500,1775
1056.482000,1773
1056.482500,1746
1056.483000,1692
1056.483500,1679
1056.484000,1708
1056.484500,1760
1056.485000,1801
1056.485500,1820
1056.486000,1849
1056.486500,1872
1056.487000,1849
1056.487500,1832
1056.488000,1818
1056.488500,1796
1056.489000,1751
1056.489500,1725
1056.490000,1729
1056.490500,1761
1056.491000,1809
1056.491500,1837
1056.492000,1826
1056.492500,1787
1056.493000,1760
1056.493500,1742
1056.494000,1762
1056.494500,1785
1056.495000,1806
1056.495500,1807
1056.496000,1817
1056.496500,1826
1056.497000,1818
1056.497500,1808
1056.498000,1803
1056.498500,1788
1056.499000,1795
1056.499500,1851
1056.500000,1863
1056.500500,1861
1056.501000,1800
1056.501500,1721
1056.502000,1709
1056.502500,1749
1056.503000,1777
1056.503500,1795
1056.504000,1814
1056.504500,1801
1056.505000,1787
1056.505500,1804
1056.506000,1830
1056.506500,1843
1056.507000,1844
1056.507500,1833
1056.508000,1802
1056.508500,1794
1056.509000,1792
1056.509500,1789
1056.510000,1768
1056.510500,1736
1056.511000,1760
1056.511500,1767
1056.512000,1750
1056.512500,1729
1056.513000,1776
1056.513500,1813
1056.514000,1840
1056.514500,1872
1056.515000,1874
1056.515500,1857
1056.516000,1839
1056.516500,1798
1056.517000,1805
1056.517500,1815
1056.518000,1813
1056.518500,1766
1056.519000,1761
1056.519500,1802
1056.520000,1764
1056.520500,1763
1056.521000,1848
1056.521500,1901
1056.522000,1871
1056.522500,1798
1056.523000,1747
1056.523500,1763
1056.524000,1750
1056.524500,1746
1056.525000,1761
1056.525500,1812
1056.526000,1858
1056.526500,1865
1056.527000,1844
1056.527500,1784
1056.528000,1708
1056.528500,1656
1056.529000,1683
1056.529500,1749
1056.530000,1810
1056.530500,1864
1056.531000,1898
1056.531500,1856
1056.532000,1811
1056.532500,1789
1056.533000,1751
1056.533500,1791
1056.534000,1856
1056.534500,1861
1056.535000,1846
1056.535500,1816
1056.536000,1733
1056.536500,1646
1056.537000,1658
1056.537500,1737
1056.538000,1783
1056.538500,1843
1056.539000,1877
1056.539500,1855
1056.540000,1783
1056.540500,1754
1056.541000,1741
1056.541500,1731
1056.542000,1715
1056.542500,1742
1056.543000,1781
1056.543500,1815
1056.544000,1846
1056.544500,1857
1056.545000,1860
1056.545500,1843
1056.546000,1817
1056.546500,1796
1056.547000,1770
1056.547500,1775
1056.548000,1812
1056.548500,1824
1056.549000,1822
1056.549500,1797
1056.550000,1769
1056.550500,1736
1056.551000,1757
1056.551500,1774
1056.552000,1791
1056.552500,1814
1056.553000,1855
1056.553500,1890
1056.554000,1903
1056.554500,1900
1056.555000,1872
1056.555500,1831
1056.556000,1788
1056.556500,1747
1056.557000,1723
1056.557500,1735
1056.558000,1759
1056.558500,1758
1056.559000,1730
1056.559500,1731
1056.560000,1735
1056.560500,1723
1056.561000,1746
1056.561500,1814
1056.562000,1821
1056.562500,1802
1056.563000,1792
1056.563500,1799
1056.564000,1800
1056.564500,1790
1056.565000,1792
1056.565500,1790
1056.566000,1784
1056.566500,1777
1056.567000,1790
1056.567500,1799
1056.568000,1768
1056.568500,1743
1056.569000,1729
1056.569500,1746
1056.570000,1792
1056.570500,1852
1056.571000,1865
1056.571500,1871
1056.572000,1858
1056.572500,1846
1056.573000,1811
1056.573500,1802
1056.574000,1827
1056.574500,1852
1056.575000,1873
1056.575500,1890
1056.576000,1860
1056.576500,1797
1056.577000,1717
1056.577500,1711
1056.578000,1749
1056.578500,1793
1056.579000,1822
1056.579500,1828
1056.580000,1822
1056.580500,1796
1056.581000,1743
1056.581500,1735
1056.582000,1757
1056.582500,1759
1056.583000,1765
1056.583500,1790
1056.584000,1855
1056.584500,1951
1056.585000,2013
1056.585500,2026
1056.586000,1987
1056.586500,1843
1056.587000,1631
1056.587500,1564
1056.588000,1643
1056.588500,1706
1056.589000,1699
1056.589500,1745
1056.590000,1772
1056.590500,1807
1056.591000,1791
1056.591500,1781
1056.592000,1792
1056.592500,1811
1056.593000,1841
1056.593500,1840
1056.594000,1771
1056.594500,1710
1056.595000,1701
1056.595500,1754
1056.596000,1776
1056.596500,1744
1056.597000,1712
1056.597500,1709
1056.598000,1754
1056.598500,1752
1056.599000,1785
1056.599500,1824
1056.600000,1871
1056.600500,1888
1056.601000,1860
1056.601500,1819
1056.602000,1787
1056.602500,1784
1056.603000,1780
1056.603500,1782
1056.604000,1770
1056.604500,1804
1056.605000,1840
1056.605500,1848
1056.606000,1820
1056.606500,1794
1056.607000,1761
1056.607500,1741
1056.608000,1773
1056.608500,1785
1056.609000,1783
1056.609500,1775
1056.610000,1775
1056.610500,1805
1056.611000,1809
1056.611500,1823
1056.612000,1857
1056.612500,1865
1056.613000,1842
1056.613500,1825
1056.614000,1792
1056.614500,1734
1056.615000,1733
1056.615500,1768
1056.616000,1777
1056.616500,1756
1056.617000,1746
1056.617500,1783
1056.618000,1883
1056.618500,1924
1056.619000,1948
1056.619500,1905
1056.620000,1815
1056.620500,1703
1056.621000,1659
1056.621500,1728
1056.622000,1758
1056.622500,1782
1056.623000,1779
1056.623500,1785
1056.624000,1785
1056.624500,1784
1056.625000,1777
1056.625500,1782
1056.626000,1787
1056.626500,1782
1056.627000,1804
1056.627500,1800
1056.628000,1797
1056.628500,1805
1056.629000,1820
1056.629500,1819
1056.630000,1834
1056.630500,1836
1056.631000,1816
1056.631500,1773
1056.632000,1738
1056.632500,1716
1056.633000,1701
1056.633500,1698
1056.634000,1731
1056.634500,1795
1056.635000,1832
1056.635500,1820
1056.636000,1804
1056.636500,1806
1056.637000,1830
1056.637500,1839
1056.638000,1824
1056.638500,1810
1056.639000,1793
1056.639500,1807
1056.640000,1835
1056.640500,1847
1056.641000,1855
1056.641500,1837
1056.642000,1807
1056.642500,1773
1056.643000,1764
1056.643500,1814
1056.644000,1856
1056.644500,1841
1056.645000,1825
1056.645500,1845
1056.646000,1845
1056.646500,1855
1056.647000,1826
1056.647500,1796
1056.648000,1772
1056.648500,1770
1056.649000,1766
1056.649500,1776
1056.650000,1772
1056.650500,1761
1056.651000,1766
1056.651500,1785
1056.652000,1803
1056.652500,1821
1056.653000,1816
1056.653500,1815
1056.654000,1806
1056.654500,1772
1056.655000,1736
1056.655500,1720
1056.656000,1750
1056.656500,1763
1056.657000,1775
1056.657500,1803
1056.658000,1823
1056.658500,1853
1056.659000,1876
1056.659500,1873
1056.660000,1865
1056.660500,1848
1056.661000,1826
1056.661500,1800
1056.662000,1770
1056.662500,1734
1056.663000,1734
1056.663500,1747
1056.664000,1759
1056.664500,1754
1056.665000,1748
1056.665500,1744
1056.666000,1767
1056.666500,1774
1056.667000,1770
1056.667500,1778
1056.668000,1787
1056.668500,1772
1056.669000,1767
1056.669500,1770
1056.670000,1765
1056.670500,1768
1056.671000,1770
1056.671500,1789
1056.672000,1784
1056.672500,1829
1056.673000,1838
1056.673500,1819
1056.674000,1791
1056.674500,1762
1056.675000,1746
1056.675500,1771
1056.676000,1832
1056.676500,1864
1056.677000,1875
1056.677500,1860
1056.678000,1824
1056.678500,1779
1056.679000,1738
1056.679500,1749
1056.680000,1783
1056.680500,1812
1056.681000,1794
1056.681500,1808
1056.682000,1810
1056.682500,1816
1056.683000,1811
1056.683500,1800
1056.684000,1786
1056.684500,1781
1056.685000,1776
1056.685500,1778
1056.686000,1784
1056.686500,1784
1056.687000,1806
1056.687500,1852
1056.688000,1868
1056.688500,1845
1056.689000,1810
1056.689500,1780
1056.690000,1734
1056.690500,1742
1056.691000,1757
1056.691500,1778
1056.692000,1752
1056.692500,1743
1056.693000,1754
1056.693500,1777
1056.694000,1798
1056.694500,1797
1056.695000,1796
1056.695500,1774
1056.696000,1788
1056.696500,1815
1056.697000,1815
1056.697500,1817
1056.698000,1792
1056.698500,1805
1056.699000,1813
1056.699500,1832
1056.700000,1837
1056.700500,1816
1056.701000,1788
1056.701500,1789
1056.702000,1798
1056.702500,1794
1056.703000,1791
1056.703500,1772
1056.704000,1745
1056.704500,1751
1056.705000,1779
1056.705500,1799
1056.706000,1803
1056.706500,1807
1056.707000,1811
1056.707500,1810
1056.708000,1816
1056.708500,1813
1056.709000,1809
1056.709500,1820
1056.710000,1820
1056.710500,1815
1056.711000,1816
1056.711500,1804
1056.712000,1781
1056.712500,1790
1056.713000,1784
1056.713500,1783
1056.714000,1788
1056.714500,1781
1056.715000,1792
1056.715500,1794
1056.716000,1781
1056.716500,1787
1056.717000,1791
1056.717500,1803
1056.718000,1808
1056.718500,1799
1056.719000,1787
1056.719500,1772
1056.720000,1764
1056.720500,1766
1056.721000,1785
1056.721500,1786
1056.722000,1804
1056.722500,1789
1056.723000,1790
1056.723500,1784
1056.724000,1769
1056.724500,1766
1056.725000,1785
1056.725500,1797
1056.726000,1797
1056.726500,1807
1056.727000,1798
1056.727500,1795
1056.728000,1801
1056.728500,1790
1056.729000,1786
1056.729500,1787
1056.730000,1789
1056.730500,1800
1056.731000,1801
1056.731500,1784
1056.732000,1803
1056.732500,1809
1056.733000,1810
1056.733500,1809
1056.734000,1804
1056.734500,1791
1056.735000,1797
1056.735500,1772
1056.736000,1776
1056.736500,1782
1056.737000,1791
1056.737500,1784
1056.738000,1800
1056.738500,1811
1056.739000,1804
1056.739500,1790
1056.740000,1798
1056.740500,1797
1056.741000,1800
1056.741500,1780
1056.742000,1784
1056.742500,1794
1056.743000,1799
1056.743500,1797
1056.744000,1801
1056.744500,1793
1056.745000,1790
1056.745500,1784
1056.746000,1797
1056.746500,1785
1056.747000,1787
1056.747500,1791
1056.748000,1786
1056.748500,1793
1056.749000,1796
1056.749500,1795
1056.750000,1790
1056.750500,1792
1056.751000,1792
1056.751500,1789
1056.752000,1777
1056.752500,1794
1056.753000,1789
1056.753500,1784
1056.754000,1786
1056.754500,1790
1056.755000,1785
1056.755500,1788
1056.756000,1796
1056.756500,1792
1056.757000,1786
1056.757500,1789
1056.758000,1792
1056.758500,1788
1056.759000,1788
1056.759500,1788
1056.760000,1795
1056.760500,1785
1056.761000,1795
1056.761500,1791
1056.762000,1787
1056.762500,1792
1056.763000,1791
1056.763500,1793
1056.764000,1790
1056.764500,1790
1056.765000,1789
1056.765500,1786
1056.766000,1791
1056.766500,1803
1056.767000,1800
1056.767500,1792
1056.768000,1793
1056.768500,1797
1056.769000,1764
1056.769500,1790
1056.770000,1788
1056.770500,1790
1056.771000,1794
1056.771500,1787
1056.772000,1792
1056.772500,1793
1056.773000,1797
1056.773500,1797
1056.774000,1798
1056.774500,1799
1056.775000,1786
1056.775500,1793
1056.776000,1789
1056.776500,1792
1056.777000,1780
1056.777500,1775
1056.778000,1780
1056.778500,1786
1056.779000,1788
1056.779500,1793
1056.780000,1797
1056.780500,1803
1056.781000,1782
1056.781500,1797
1056.782000,1803
1056.782500,1800
1056.783000,1808
1056.783500,1801
1056.784000,1803
1056.784500,1804
1056.785000,1795
1056.785500,1783
1056.786000,1788
1056.786500,1786
1056.787000,1786
1056.787500,1788
1056.788000,1783
1056.788500,1786
1056.789000,1794
1056.789500,1816
1056.790000,1829
1056.790500,1812
1056.791000,1813
1056.791500,1826
1056.792000,1829
1056.792500,1821
1056.793000,1820
1056.793500,1812
1056.794000,1807
1056.794500,1799
1056.795000,1791
1056.795500,1776
1056.796000,1772
1056.796500,1779
1056.797000,1776
1056.797500,1782
1056.798000,1776
1056.798500,1777
1056.799000,1775
1056.799500,1776
1056.800000,1779
1056.800500,1785
1056.801000,1788
1056.801500,1786
1056.802000,1793
1056.802500,1801
1056.803000,1795
1056.803500,1794
1056.804000,1800
1056.804500,1794
1056.805000,1801
1056.805500,1794
1056.806000,1791
1056.806500,1786
1056.807000,1797
1056.807500,1804
1056.808000,1794
1056.808500,1796
1056.809000,1800
1056.809500,1793
1056.810000,1797
1056.810500,1806
1056.811000,1806
1056.811500,1795
1056.812000,1799
1056.812500,1796
1056.813000,1799
1056.813500,1801
1056.814000,1797
1056.814500,1798
1056.815000,1792
1056.815500,1801
1056.816000,1797
1056.816500,1799
1056.817000,1794
1056.817500,1796
1056.818000,1782
1056.818500,1788
1056.819000,1791
1056.819500,1799
1056.820000,1794
1056.820500,1798
1056.821000,1781
1056.821500,1793
1056.822000,1792
1056.822500,1794
1056.823000,1794
1056.823500,1797
1056.824000,1800
1056.824500,1796
1056.825000,1791
1056.825500,1795
1056.826000,1797
1056.826500,1789
1056.827000,1786
1056.827500,1798
1056.828000,1800
1056.828500,1797
1056.829000,1796
1056.829500,1794
1056.830000,1802
1056.830500,1784
1056.831000,1797
1056.831500,1802
1056.832000,1792
1056.832500,1806
1056.833000,1804
1056.833500,1802
1056.834000,1808
1056.834500,1803
1056.835000,1793
1056.835500,1796
1056.836000,1807
1056.836500,1792
1056.837000,1795
1056.837500,1793
1056.838000,1798
1056.838500,1792
1056.839000,1789
1056.839500,1790
1056.840000,1796
1056.840500,1793
1056.841000,1788
1056.841500,1799
1056.842000,1794
1056.842500,1790
1056.843000,1797
1056.843500,1796
1056.844000,1792
1056.844500,1790
1056.845000,1810
1056.845500,1789
1056.846000,1794
1056.846500,1803
1056.847000,1793
1056.847500,1791
1056.848000,1799
1056.848500,1794
1056.849000,1796
1056.849500,1796
1056.850000,1793
1056.850500,1799
1056.851000,1817
1056.851500,1796
1056.852000,1798
1056.852500,1796
1056.853000,1795
1056.853500,1796
1056.854000,1795
1056.854500,1799
1056.855000,1805
1056.855500,1796
1056.856000,1794
1056.856500,1789
1056.857000,1791
1056.857500,1792
1056.858000,1797
1056.858500,1808
1056.859000,1794
1056.859500,1803
1056.860000,1798
1056.860500,1791
1056.861000,1797
1056.861500,1801
1056.862000,1801
1056.862500,1796
1056.863000,1803
1056.863500,1798
1056.864000,1795
1056.864500,1796
1056.865000,1800
1056.865500,1790
1056.866000,1796
1056.866500,1794
1056.867000,1796
1056.867500,1793
1056.868000,1791
1056.868500,1794
1056.869000,1785
1056.869500,1794
1056.870000,1797
1056.870500,1796
1056.871000,1796
1056.871500,1793
1056.872000,1806
1056.872500,1800
1056.873000,1799
1056.873500,1799
1056.874000,1794
1056.874500,1797
1056.875000,1783
1056.875500,1797
1056.876000,1792
1056.876500,1792
1056.877000,1799
1056.877500,1799
1056.878000,1796
1056.878500,1786
1056.879000,1791
1056.879500,1801
1056.880000,1795
1056.880500,1802
1056.881000,1792
1056.881500,1802
1056.882000,1797
1056.882500,1796
1056.883000,1798
1056.883500,1803
1056.884000,1800
1056.884500,1802
1056.885000,1795
1056.885500,1791
1056.886000,1805
1056.886500,1789
1056.887000,1794
1056.887500,1796
1056.888000,1791
1056.888500,1796
1056.889000,1794
1056.889500,1789
1056.890000,1795
1056.890500,1801
1056.891000,1807
1056.891500,1790
1056.892000,1791
1056.892500,1798
1056.893000,1797
1056.893500,1796
1056.894000,1796
1056.894500,1799
1056.895000,1796
1056.895500,1779
1056.896000,1803
1056.896500,1784
1056.897000,1797
1056.897500,1802
1056.898000,1802
1056.898500,1797
1056.899000,1801
1056.899500,1797
1056.900000,1794
1056.900500,1802
1056.901000,1802
1056.901500,1793
1056.902000,1790
1056.902500,1799
1056.903000,1800
1056.903500,1797
1056.904000,1796
1056.904500,1793
1056.905000,1796
1056.905500,1804
1056.906000,1797
1056.906500,1798
1056.907000,1789
1056.907500,1797
1056.908000,1793
1056.908500,1793
1056.909000,1802
1056.909500,1798
1056.910000,1797
1056.910500,1793
1056.911000,1800
1056.911500,1788
1056.912000,1795
1056.912500,1818
1056.913000,1799
1056.913500,1799
1056.914000,1797
1056.914500,1799
1056.915000,1798
1056.915500,1796
1056.916000,1799
1056.916500,1805
1056.917000,1797
1056.917500,1793
1056.918000,1791
1056.918500,1789
1056.919000,1794
1056.919500,1795
1056.920000,1797
1056.920500,1797
1056.921000,1799
1056.921500,1794
1056.922000,1799
1056.922500,1792
1056.923000,1795
1056.923500,1793
1056.924000,1794
1056.924500,1790
1056.925000,1797
1056.925500,1800
1056.926000,1797
1056.926500,1802
1056.927000,1794
1056.927500,1794
1056.928000,1795
1056.928500,1797
1056.929000,1798
1056.929500,1794
1056.930000,1796
1056.930500,1797
1056.931000,1796
1056.931500,1799
1056.932000,1798
1056.932500,1788
1056.933000,1813
1056.933500,1796
1056.934000,1798
1056.934500,1790
1056.935000,1797
1056.935500,1791
1056.936000,1794
1056.936500,1793
1056.937000,1795
1056.937500,1796
1056.938000,1800
1056.938500,1793
1056.939000,1793
1056.939500,1793
1056.940000,1793
1056.940500,1794
1056.941000,1787
1056.941500,1789
1056.942000,1794
1056.942500,1796
1056.943000,1793
1056.943500,1793
1056.944000,1791
1056.944500,1791
1056.945000,1785
1056.945500,1796
1056.946000,1796
1056.946500,1791
1056.947000,1799
1056.947500,1798
1056.948000,1790
1056.948500,1794
1056.949000,1800
1056.949500,1807
1056.950000,1794
1056.950500,1802
1056.951000,1798
1056.951500,1800
1056.952000,1794
1056.952500,1803
1056.953000,1804
1056.953500,1810
1056.954000,1797
1056.954500,1802
1056.955000,1794
1056.955500,1791
1056.956000,1793
1056.956500,1789
1056.957000,1796
1056.957500,1796
1056.958000,1793
1056.958500,1790
1056.959000,1801
1056.959500,1771
1056.960000,1795
1056.960500,1803
1056.961000,1797
1056.961500,1785
1056.962000,1789
1056.962500,1787
1056.963000,1795
1056.963500,1795
1056.964000,1798
1056.964500,1801
1056.965000,1807
1056.965500,1787
1056.966000,1801
1056.966500,1795
1056.967000,1794
1056.967500,1795
1056.968000,1794
1056.968500,1795
1056.969000,1795
1056.969500,1801
1056.970000,1791
1056.970500,1797
1056.971000,1799
1056.971500,1811
1056.972000,1805
1056.972500,1802
1056.973000,1800
1056.973500,1798
1056.974000,1793
1056.974500,1796
1056.975000,1801
1056.975500,1800
1056.976000,1802
1056.976500,1797
1056.977000,1793
1056.977500,1794
1056.978000,1800
1056.978500,1800
1056.979000,1798
1056.979500,1785
1056.980000,1799
1056.980500,1790
1056.981000,1790
1056.981500,1800
1056.982000,1796
1056.982500,1798
1056.983000,1794
1056.983500,1799
1056.984000,1791
1056.984500,1802
1056.985000,1800
1056.985500,1792
1056.986000,1798
1056.986500,1789
1056.987000,1788
1056.987500,1790
1056.988000,1789
1056.988500,1791
1056.989000,1788
1056.989500,1798
1056.990000,1807
1056.990500,1801
1056.991000,1800
1056.991500,1799
1056.992000,1797
1056.992500,1799
1056.993000,1798
1056.993500,1795
1056.994000,1795
1056.994500,1799
1056.995000,1806
1056.995500,1800
1056.996000,1786
1056.996500,1792
1056.997000,1805
1056.997500,1788
1056.998000,1796
1056.998500,1803
1056.999000,1796
1056.999500,1798
1057.000000,1805
1057.000500,1805
1057.001000,1794
1057.001500,1793
1057.002000,1797
1057.002500,1794
1057.003000,1787
1057.003500,1794
1057.004000,1792
1057.004500,1789
1057.005000,1792
1057.005500,1799
1057.006000,1787
1057.006500,1800
1057.007000,1790
1057.007500,1790
1057.008000,1796
1057.008500,1787
1057.009000,1797
1057.009500,1795
1057.010000,1797
1057.010500,1796
1057.011000,1803
1057.011500,1805
1057.012000,1798
1057.012500,1799
1057.013000,1800
1057.013500,1795
1057.014000,1794
1057.014500,1794
1057.015000,1792
1057.015500,1796
1057.016000,1795
1057.016500,1791
1057.017000,1790
1057.017500,1801
1057.018000,1798
1057.018500,1802
1057.019000,1798
1057.019500,1786
1057.020000,1764
1057.020500,1791
1057.021000,1787
1057.021500,1801
1057.022000,1792
1057.022500,1794
1057.023000,1788
1057.023500,1785
1057.024000,1791
1057.024500,1792
1057.025000,1797
1057.025500,1798
1057.026000,1783
1057.026500,1789
1057.027000,1794
1057.027500,1799
1057.028000,1788
1057.028500,1790
1057.029000,1796
1057.029500,1792
1057.030000,1810
1057.030500,1802
1057.031000,1809
1057.031500,1791
1057.032000,1791
1057.032500,1800
1057.033000,1803
1057.033500,1798
1057.034000,1794
1057.034500,1804
1057.035000,1804
1057.035500,1798
1057.036000,1797
1057.036500,1794
1057.037000,1791
1057.037500,1792
1057.038000,1775
1057.038500,1794
1057.039000,1796
1057.039500,1788
1057.040000,1796
1057.040500,1790
1057.041000,1793
1057.041500,1787
1057.042000,1794
1057.042500,1797
1057.043000,1791
1057.043500,1791
1057.044000,1795
1057.044500,1796
1057.045000,1795
1057.045500,1793
1057.046000,1791
1057.046500,1797
1057.047000,1793
1057.047500,1793
1057.048000,1795
1057.048500,1795
1057.049000,1785
1057.049500,1797
1057.050000,1795
1057.050500,1792
1057.051000,1799
1057.051500,1793
1057.052000,1791
1057.052500,1801
1057.053000,1798
1057.053500,1795
1057.054000,1792
1057.054500,1790
1057.055000,1814
1057.055500,1795
1057.056000,1801
1057.056500,1791
1057.057000,1792
1057.057500,1807
1057.058000,1796
1057.058500,1796
1057.059000,1800
1057.059500,1795
1057.060000,1822
1057.060500,1804
1057.061000,1797
1057.061500,1792
1057.062000,1800
1057.062500,1794
1057.063000,1794
1057.063500,1793
1057.064000,1790
1057.064500,1797
1057.065000,1790
1057.065500,1790
1057.066000,1787
1057.066500,1797
1057.067000,1789
1057.067500,1792
1057.068000,1792
1057.068500,1803
1057.069000,1789
1057.069500,1796
1057.070000,1795
1057.070500,1795
1057.071000,1802
1057.071500,1801
1057.072000,1797
1057.072500,1793
1057.073000,1794
1057.073500,1801
1057.074000,1793
1057.074500,1789
1057.075000,1795
1057.075500,1791
1057.076000,1796
1057.076500,1796
1057.077000,1800
1057.077500,1798
1057.078000,1802
1057.078500,1801
1057.079000,1798
1057.079500,1792
1057.080000,1791
1057.080500,1792
1057.081000,1794
1057.081500,1800
1057.082000,1793
1057.082500,1785
1057.083000,1792
1057.083500,1790
1057.084000,1795
1057.084500,1791
1057.085000,1801
1057.085500,1819
1057.086000,1795
1057.086500,1797
1057.087000,1796
1057.087500,1794
1057.088000,1790
1057.088500,1798
1057.089000,1801
1057.089500,1793
1057.090000,1791
1057.090500,1796
1057.091000,1794
1057.091500,1792
1057.092000,1797
1057.092500,1794
1057.093000,1794
1057.093500,1796
1057.094000,1799
1057.094500,1796
1057.095000,1795
1057.095500,1799
1057.096000,1798
1057.096500,1797
1057.097000,1797
1057.097500,1792
1057.098000,1792
1057.098500,1793
1057.099000,1797
1057.099500,1793
1057.100000,1826
1057.100500,1804
1057.101000,1797
1057.101500,1790
1057.102000,1798
1057.102500,1795
1057.103000,1793
1057.103500,1789
1057.104000,1795
1057.104500,1784
1057.105000,1797
1057.105500,1789
1057.106000,1807
1057.106500,1795
1057.107000,1792
1057.107500,1793
1057.108000,1791
1057.108500,1783
1057.109000,1793
1057.109500,1796
1057.110000,1804
1057.110500,1799
1057.111000,1798
1057.111500,1797
1057.112000,1799
1057.112500,1803
1057.113000,1800
1057.113500,1797
1057.114000,1797
1057.114500,1778
1057.115000,1795
1057.115500,1794
1057.116000,1801
1057.116500,1799
1057.117000,1805
1057.117500,1797
1057.118000,1807
1057.118500,1793
1057.119000,1802
1057.119500,1801
1057.120000,1786
1057.120500,1807
1057.121000,1796
1057.121500,1798
1057.122000,1796
1057.122500,1788
1057.123000,1790
1057.123500,1794
1057.124000,1800
1057.124500,1797
1057.125000,1800
1057.125500,1789
1057.126000,1795
1057.126500,1789
1057.127000,1796
1057.127500,1792
1057.128000,1797
1057.128500,1792
1057.129000,1815
1057.129500,1798
1057.130000,1805
1057.130500,1791
1057.131000,1800
1057.131500,1792
1057.132000,1795
1057.132500,1805
1057.133000,1802
1057.133500,1800
1057.134000,1795
1057.134500,1794
1057.135000,1796
1057.135500,1793
1057.136000,1795
1057.136500,1801
1057.137000,1795
1057.137500,1813
1057.138000,1796
1057.138500,1791
1057.139000,1795
1057.139500,1795
1057.140000,1792
1057.140500,1797
1057.141000,1796
1057.141500,1791
1057.142000,1788
1057.142500,1802
1057.143000,1794
1057.143500,1789
1057.144000,1791
1057.144500,1788
1057.145000,1800
1057.145500,1791
1057.146000,1795
1057.146500,1798
1057.147000,1793
1057.147500,1799
1057.148000,1792
1057.148500,1807
1057.149000,1794
1057.149500,1796
1057.150000,1801
1057.150500,1802
1057.151000,1801
1057.151500,1797
1057.152000,1806
1057.152500,1796
1057.153000,1793
1057.153500,1800
1057.154000,1798
1057.154500,1784
1057.155000,1796
1057.155500,1804
1057.156000,1804
1057.156500,1797
1057.157000,1799
1057.157500,1795
1057.158000,1798
1057.158500,1798
1057.159000,1794
1057.159500,1801
1057.160000,1788
1057.160500,1803
1057.161000,1796
1057.161500,1796
1057.162000,1795
1057.162500,1804
1057.163000,1780
1057.163500,1799
1057.164000,1796
1057.164500,1795
1057.165000,1797
1057.165500,1784
1057.166000,1790
1057.166500,1797
1057.167000,1798
1057.167500,1793
1057.168000,1788
1057.168500,1800
1057.169000,1805
1057.169500,1795
1057.170000,1797
1057.170500,1800
1057.171000,1797
1057.171500,1789
1057.172000,1798
1057.172500,1798
1057.173000,1795
1057.173500,1796
1057.174000,1797
1057.174500,1788
1057.175000,1780
1057.175500,1796
1057.176000,1797
1057.176500,1791
1057.177000,1791
1057.177500,1814
1057.178000,1793
1057.178500,1787
1057.179000,1791
1057.179500,1794
1057.180000,1788
1057.180500,1798
1057.181000,1799
1057.181500,1791
1057.182000,1797
1057.182500,1797
1057.183000,1793
1057.183500,1791
1057.184000,1795
1057.184500,1799
1057.185000,1793
1057.185500,1790
1057.186000,1809
1057.186500,1797
1057.187000,1794
1057.187500,1796
1057.188000,1793
1057.188500,1790
1057.189000,1789
1057.189500,1798
1057.190000,1794
1057.190500,1798
1057.191000,1799
1057.191500,1789
1057.192000,1781
1057.192500,1799
1057.193000,1796
1057.193500,1794
1057.194000,1801
1057.194500,1797
1057.195000,1798
1057.195500,1797
1057.196000,1800
1057.196500,1792
1057.197000,1789
1057.197500,1803
1057.198000,1799
1057.198500,1796
1057.199000,1799
1057.199500,1799
1057.200000,1797
1057.200500,1785
1057.201000,1800
1057.201500,1802
1057.202000,1787
1057.202500,1793
1057.203000,1792
1057.203500,1795
1057.204000,1799
1057.204500,1801
1057.205000,1798
1057.205500,1791
1057.206000,1791
1057.206500,1796
1057.207000,1788
1057.207500,1793
1057.208000,1802
1057.208500,1792
1057.209000,1780
1057.209500,1796
1057.210000,1796
1057.210500,1797
1057.211000,1802
1057.211500,1792
1057.212000,1795
1057.212500,1797
1057.213000,1797
1057.213500,1795
1057.214000,1799
1057.214500,1791
1057.215000,1811
1057.215500,1797
1057.216000,1799
1057.216500,1798
1057.217000,1797
1057.217500,1785
1057.218000,1794
1057.218500,1776
1057.219000,1787
1057.219500,1798
1057.220000,1795
1057.220500,1805
1057.221000,1798
1057.221500,1791
1057.222000,1794
1057.222500,1792
1057.223000,1794
1057.223500,1798
1057.224000,1792
1057.224500,1793
1057.225000,1795
1057.225500,1795
1057.226000,1799
1057.226500,1791
1057.227000,1807
1057.227500,1794
1057.228000,1790
1057.228500,1794
1057.229000,1796
1057.229500,1778
1057.230000,1801
1057.230500,1801
1057.231000,1793
1057.231500,1800
1057.232000,1797
1057.232500,1793
1057.233000,1797
1057.233500,1798
1057.234000,1795
1057.234500,1795
1057.235000,1803
1057.235500,1789
1057.236000,1792
1057.236500,1806
1057.237000,1795
1057.237500,1790
1057.238000,1791
1057.238500,1795
1057.239000,1793
1057.239500,1795
1057.240000,1797
1057.240500,1793
1057.241000,1792
1057.241500,1780
1057.242000,1797
1057.242500,1793
1057.243000,1793
1057.243500,1791
1057.244000,1791
1057.244500,1789
1057.245000,1800
1057.245500,1799
1057.246000,1792
1057.246500,1792
1057.247000,1796
1057.247500,1797
1057.248000,1793
1057.248500,1794
1057.249000,1791
1057.249500,1797
1057.250000,1826
1057.250500,1798
1057.251000,1790
1057.251500,1795
1057.252000,1800
1057.252500,1799
1057.253000,1795
1057.253500,1794
1057.254000,1797
1057.254500,1800
1057.255000,1802
1057.255500,1793
1057.256000,1788
1057.256500,1798
1057.257000,1799
1057.257500,1797
1057.258000,1792
1057.258500,1797
1057.259000,1795
1057.259500,1786
1057.260000,1798
1057.260500,1792
1057.261000,1800
1057.261500,1797
1057.262000,1811
1057.262500,1797
1057.263000,1798
1057.263500,1796
1057.264000,1793
1057.264500,1791
1057.265000,1794
1057.265500,1801
1057.266000,1792
1057.266500,1791
1057.267000,1793
1057.267500,1786
1057.268000,1812
1057.268500,1790
1057.269000,1796
1057.269500,1792
1057.270000,1791
1057.270500,1794
1057.271000,1792
1057.271500,1817
1057.272000,1794
1057.272500,1794
1057.273000,1795
1057.273500,1797
1057.274000,1787
1057.274500,1803
1057.275000,1801
1057.275500,1793
1057.276000,1794
1057.276500,1790
1057.277000,1792
1057.277500,1797
1057.278000,1800
1057.278500,1794
1057.279000,1790
1057.279500,1797
1057.280000,1796
1057.280500,1790
1057.281000,1790
1057.281500,1801
1057.282000,1791
1057.282500,1788
1057.283000,1794
1057.283500,1785
1057.284000,1796
1057.284500,1788
1057.285000,1797
1057.285500,1793
1057.286000,1810
1057.286500,1792
1057.287000,1797
1057.287500,1803
1057.288000,1792
1057.288500,1797
1057.289000,1791
1057.289500,1797
1057.290000,1803
1057.290500,1797
1057.291000,1801
1057.291500,1793
1057.292000,1788
1057.292500,1798
1057.293000,1794
1057.293500,1800
1057.294000,1798
1057.294500,1787
1057.295000,1799
1057.295500,1798
1057.296000,1801
1057.296500,1795
1057.297000,1794
1057.297500,1799
1057.298000,1781
1057.298500,1801
1057.299000,1793
1057.299500,1804
1057.300000,1794
1057.300500,1797
1057.301000,1795
1057.301500,1797
1057.302000,1788
1057.302500,1791
1057.303000,1795
1057.303500,1794
1057.304000,1779
1057.304500,1791
1057.305000,1797
1057.305500,1802
1057.306000,1794
1057.306500,1796
1057.307000,1793
1057.307500,1801
1057.308000,1796
1057.308500,1794
1057.309000,1792
1057.309500,1793
1057.310000,1824
1057.310500,1800
1057.311000,1796
1057.311500,1795
1057.312000,1798
1057.312500,1799
1057.313000,1795
1057.313500,1793
1057.314000,1797
1057.314500,1794
1057.315000,1791
1057.315500,1797
1057.316000,1779
1057.316500,1798
1057.317000,1788
1057.317500,1800
1057.318000,1797
1057.318500,1794
1057.319000,1807
1057.319500,1792
1057.320000,1796
1057.320500,1787
1057.321000,1796
1057.321500,1790
1057.322000,1814
1057.322500,1799
1057.323000,1800
1057.323500,1796
1057.324000,1788
1057.324500,1793
1057.325000,1796
1057.325500,1805
1057.326000,1796
1057.326500,1787
1057.327000,1785
1057.327500,1788
1057.328000,1801
1057.328500,1789
1057.329000,1796
1057.329500,1793
1057.330000,1792
1057.330500,1795
1057.331000,1796
1057.331500,1805
1057.332000,1797
1057.332500,1800
1057.333000,1799
1057.333500,1797
1057.334000,1790
1057.334500,1802
1057.335000,1797
1057.335500,1798
1057.336000,1789
1057.336500,1791
1057.337000,1794
1057.337500,1780
1057.338000,1800
1057.338500,1797
1057.339000,1802
1057.339500,1791
1057.340000,1801
1057.340500,1787
1057.341000,1782
1057.341500,1797
1057.342000,1798
1057.342500,1789
1057.343000,1794
1057.343500,1797
1057.344000,1796
1057.344500,1789
1057.345000,1794
1057.345500,1794
1057.346000,1816
1057.346500,1797
1057.347000,1799
1057.347500,1794
1057.348000,1796
1057.348500,1790
1057.349000,1792
1057.349500,1797
1057.350000,1798
1057.350500,1793
1057.351000,1794
1057.351500,1799
1057.352000,1805
1057.352500,1799
1057.353000,1796
1057.353500,1799
1057.354000,1797
1057.354500,1774
1057.355000,1798
1057.355500,1796
1057.356000,1796
1057.356500,1797
1057.357000,1795
1057.357500,1794
1057.358000,1793
1057.358500,1800
1057.359000,1793
1057.359500,1790
1057.360000,1798
1057.360500,1796
1057.361000,1803
1057.361500,1796
1057.362000,1791
1057.362500,1791
1057.363000,1797
1057.363500,1798
1057.364000,1797
1057.364500,1794
1057.365000,1790
1057.365500,1805
1057.366000,1794
1057.366500,1794
1057.367000,1791
1057.367500,1791
1057.368000,1794
1057.368500,1795
1057.369000,1794
1057.369500,1797
1057.370000,1795
1057.370500,1800
1057.371000,1793
1057.371500,1792
1057.372000,1797
1057.372500,1804
1057.373000,1801
1057.373500,1802
1057.374000,1798
1057.374500,1797
1057.375000,1784
1057.375500,1802
1057.376000,1798
1057.376500,1796
1057.377000,1792
1057.377500,1792
1057.378000,1793
1057.378500,1790
1057.379000,1791
1057.379500,1799
1057.380000,1800
1057.380500,1790
1057.381000,1788
1057.381500,1798
1057.382000,1794
1057.382500,1798
1057.383000,1799
1057.383500,1817
1057.384000,1792
1057.384500,1790
1057.385000,1793
1057.385500,1799
1057.386000,1790
1057.386500,1790
1057.387000,1794
1057.387500,1794
1057.388000,1798
1057.388500,1791
1057.389000,1796
1057.389500,1780
1057.390000,1794
1057.390500,1792
1057.391000,1799
1057.391500,1798
1057.392000,1802
1057.392500,1798
1057.393000,1797
1057.393500,1794
1057.394000,1798
1057.394500,1792
1057.395000,1788
1057.395500,1803
1057.396000,1798
1057.396500,1789
1057.397000,1788
1057.397500,1802
1057.398000,1801
1057.398500,1791
1057.399000,1794
1057.399500,1802
1057.400000,1797
1057.400500,1796
1057.401000,1794
1057.401500,1795
1057.402000,1796
1057.402500,1792
1057.403000,1792
1057.403500,1792
1057.404000,1789
1057.404500,1793
1057.405000,1791
1057.405500,1794
1057.406000,1797
1057.406500,1793
1057.407000,1790
1057.407500,1798
1057.408000,1788
1057.408500,1796
1057.409000,1793
1057.409500,1797
1057.410000,1801
1057.410500,1801
1057.411000,1802
1057.411500,1800
1057.412000,1794
1057.412500,1799
1057.413000,1793
1057.413500,1807
1057.414000,1793
1057.414500,1793
1057.415000,1794
1057.415500,1794
1057.416000,1799
1057.416500,1793
1057.417000,1791
1057.417500,1783
1057.418000,1793
1057.418500,1797
1057.419000,1788
1057.419500,1794
1057.420000,1788
1057.420500,1799
1057.421000,1795
1057.421500,1797
1057.422000,1795
1057.422500,1799
1057.423000,1793
1057.423500,1793
1057.424000,1798
1057.424500,1796
1057.425000,1800
1057.425500,1796
1057.426000,1790
1057.426500,1796
1057.427000,1793
1057.427500,1794
1057.428000,1791
1057.428500,1795
1057.429000,1786
1057.429500,1795
1057.430000,1805
1057.430500,1802
1057.431000,1797
1057.431500,1807
1057.432000,1796
1057.432500,1793
1057.433000,1781
1057.433500,1799
1057.434000,1791
1057.434500,1789
1057.435000,1790
1057.435500,1795
1057.436000,1796
1057.436500,1782
1057.437000,1793
1057.437500,1792
1057.438000,1785
1057.438500,1789
1057.439000,1782
1057.439500,1792
1057.440000,1802
1057.440500,1797
1057.441000,1799
1057.441500,1796
1057.442000,1793
1057.442500,1798
1057.443000,1797
1057.443500,1797
1057.444000,1792
1057.444500,1792
1057.445000,1801
1057.445500,1795
1057.446000,1796
1057.446500,1799
1057.447000,1797
1057.447500,1777
1057.448000,1791
1057.448500,1792
1057.449000,1800
1057.449500,1806
1057.450000,1799
1057.450500,1801
1057.451000,1801
1057.451500,1797
1057.452000,1794
1057.452500,1795
1057.453000,1798
1057.453500,1789
1057.454000,1795
1057.454500,1794
1057.455000,1795
1057.455500,1794
1057.456000,1795
1057.456500,1791
1057.457000,1798
1057.457500,1790
1057.458000,1789
1057.458500,1799
1057.459000,1787
1057.459500,1790
1057.460000,1790
1057.460500,1788
1057.461000,1792
1057.461500,1787
1057.462000,1822
1057.462500,1797
1057.463000,1796
1057.463500,1795
1057.464000,1794
1057.464500,1787
1057.465000,1785
1057.465500,1792
1057.466000,1798
1057.466500,1798
1057.467000,1791
1057.467500,1790
1057.468000,1795
1057.468500,1797
1057.469000,1797
1057.469500,1800
1057.470000,1800
1057.470500,1784
1057.471000,1811
1057.471500,1796
1057.472000,1799
1057.472500,1796
1057.473000,1805
1057.473500,1795
1057.474000,1792
1057.474500,1800
1057.475000,1791
1057.475500,1796
1057.476000,1800
1057.476500,1800
1057.477000,1791
1057.477500,1799
1057.478000,1795
1057.478500,1796
1057.479000,1778
1057.479500,1801
1057.480000,1798
1057.480500,1790
1057.481000,1799
1057.481500,1805
1057.482000,1787
1057.482500,1788
1057.483000,1797
1057.483500,1795
1057.484000,1793
1057.484500,1794
1057.485000,1798
1057.485500,1795
1057.486000,1800
1057.486500,1797
1057.487000,1802
1057.487500,1779
1057.488000,1796
1057.488500,1794
1057.489000,1796
1057.489500,1797
1057.490000,1794
1057.490500,1795
1057.491000,1795
1057.491500,1793
1057.492000,1800
1057.492500,1799
1057.493000,1796
1057.493500,1795
1057.494000,1794
1057.494500,1795
1057.495000,1802
1057.495500,1793
1057.496000,1799
1057.496500,1790
1057.497000,1798
1057.497500,1794
1057.498000,1794
1057.498500,1797
1057.499000,1786
1057.499500,1796
1057.500000,1801
1057.500500,1800
1057.501000,1791
1057.501500,1793
1057.502000,1801
1057.502500,1791
1057.503000,1795
1057.503500,1797
1057.504000,1791
1057.504500,1797
1057.505000,1799
1057.505500,1801
1057.506000,1794
1057.506500,1788
1057.507000,1787
1057.507500,1793
1057.508000,1785
1057.508500,1796
1057.509000,1795
1057.509500,1791
1057.510000,1793
1057.510500,1797
1057.511000,1796
1057.511500,1799
1057.512000,1794
1057.512500,1797
1057.513000,1797
1057.513500,1798
1057.514000,1795
1057.514500,1790
1057.515000,1793
1057.515500,1797
1057.516000,1792
1057.516500,1797
1057.517000,1799
1057.517500,1788
1057.518000,1797
1057.518500,1794
1057.519000,1777
1057.519500,1789
1057.520000,1795
1057.520500,1787
1057.521000,1795
1057.521500,1780
1057.522000,1796
1057.522500,1792
1057.523000,1795
1057.523500,1792
1057.524000,1795
1057.524500,1792
1057.525000,1791
1057.525500,1792
1057.526000,1794
1057.526500,1788
1057.527000,1791
1057.527500,1805
1057.528000,1799
1057.528500,1787
1057.529000,1797
1057.529500,1791
1057.530000,1809
1057.530500,1803
1057.531000,1797
1057.531500,1795
1057.532000,1801
1057.532500,1797
1057.533000,1798
1057.533500,1795
1057.534000,1794
1057.534500,1796
1057.535000,1798
1057.535500,1795
1057.536000,1777
1057.536500,1794
1057.537000,1784
1057.537500,1801
1057.538000,1801
1057.538500,1780
1057.539000,1793
1057.539500,1792
1057.540000,1800
1057.540500,1800
1057.541000,1803
1057.541500,1796
1057.542000,1799
1057.542500,1798
1057.543000,1794
1057.543500,1795
1057.544000,1795
1057.544500,1793
1057.545000,1793
1057.545500,1796
1057.546000,1787
1057.546500,1794
1057.547000,1792
1057.547500,1798
1057.548000,1798
1057.548500,1798
1057.549000,1799
1057.549500,1789
1057.550000,1801
1057.550500,1780
1057.551000,1797
1057.551500,1799
1057.552000,1794
1057.552500,1796
1057.553000,1796
1057.553500,1795
1057.554000,1799
1057.554500,1800
1057.555000,1792
1057.555500,1789
1057.556000,1795
1057.556500,1797
1057.557000,1799
1057.557500,1795
1057.558000,1792
1057.558500,1794
1057.559000,1791
1057.559500,1797
1057.560000,1791
1057.560500,1794
1057.561000,1794
1057.561500,1788
1057.562000,1786
1057.562500,1810
1057.563000,1789
1057.563500,1795
1057.564000,1800
1057.564500,1793
1057.565000,1800
1057.565500,1791
1057.566000,1795
1057.566500,1795
1057.567000,1794
1057.567500,1786
1057.568000,1798
1057.568500,1797
1057.569000,1793
1057.569500,1796
1057.570000,1796
1057.570500,1794
1057.571000,1794
1057.571500,1795
1057.572000,1793
1057.572500,1796
1057.573000,1796
1057.573500,1796
1057.574000,1794
1057.574500,1800
1057.575000,1794
1057.575500,1794
1057.576000,1800
1057.576500,1798
1057.577000,1783
1057.577500,1791
1057.578000,1799
1057.578500,1800
1057.579000,1802
1057.579500,1798
1057.580000,1803
1057.580500,1796
1057.581000,1790
1057.581500,1787
1057.582000,1803
1057.582500,1796
1057.583000,1808
1057.583500,1792
1057.584000,1793
1057.584500,1790
1057.585000,1793
1057.585500,1792
1057.586000,1789
1057.586500,1796
1057.587000,1800
1057.587500,1800
1057.588000,1794
1057.588500,1797
1057.589000,1791
1057.589500,1788
1057.590000,1799
1057.590500,1801
1057.591000,1799
1057.591500,1789
1057.592000,1790
1057.592500,1796
1057.593000,1801
1057.593500,1794
1057.594000,1791
1057.594500,1795
1057.595000,1798
1057.595500,1801
1057.596000,1790
1057.596500,1796
1057.597000,1792
1057.597500,1818
1057.598000,1796
1057.598500,1800
1057.599000,1795
1057.599500,1798
1057.600000,1814
1057.600500,1802
1057.601000,1808
1057.601500,1801
1057.602000,1792
1057.602500,1795
1057.603000,1788
1057.603500,1796
1057.604000,1789
1057.604500,1786
1057.605000,1794
1057.605500,1793
1057.606000,1796
1057.606500,1794
1057.607000,1794
1057.607500,1796
1057.608000,1795
1057.608500,1777
1057.609000,1801
1057.609500,1795
1057.610000,1794
1057.610500,1798
1057.611000,1809
1057.611500,1797
1057.612000,1806
1057.612500,1801
1057.613000,1800
1057.613500,1806
1057.614000,1805
1057.614500,1793
1057.615000,1810
1057.615500,1802
1057.616000,1797
1057.616500,1792
1057.617000,1806
1057.617500,1797
1057.618000,1789
1057.618500,1789
1057.619000,1778
1057.619500,1781
1057.620000,1791
1057.620500,1795
1057.621000,1794
1057.621500,1790
1057.622000,1796
1057.622500,1799
1057.623000,1803
1057.623500,1796
1057.624000,1796
1057.624500,1797
1057.625000,1794
1057.625500,1798
1057.626000,1793
1057.626500,1795
1057.627000,1793
1057.627500,1796
1057.628000,1792
1057.628500,1795
1057.629000,1790
1057.629500,1791
1057.630000,1792
1057.630500,1790
1057.631000,1793
1057.631500,1798
1057.632000,1794
1057.632500,1796
1057.633000,1797
1057.633500,1799
1057.634000,1793
1057.634500,1792
1057.635000,1798
1057.635500,1801
1057.636000,1802
1057.636500,1803
1057.637000,1798
1057.637500,1795
1057.638000,1802
1057.638500,1801
1057.639000,1795
1057.639500,1806
1057.640000,1807
1057.640500,1793
1057.641000,1796
1057.641500,1801
1057.642000,1800
1057.642500,1787
1057.643000,1793
1057.643500,1778
1057.644000,1789
1057.644500,1794
1057.645000,1791
1057.645500,1794
1057.646000,1793
1057.646500,1805
1057.647000,1794
1057.647500,1790
1057.648000,1791
1057.648500,1806
1057.649000,1795
1057.649500,1799
1057.650000,1798
1057.650500,1800
1057.651000,1794
1057.651500,1801
1057.652000,1791
1057.652500,1798
1057.653000,1798
1057.653500,1799
1057.654000,1795
1057.654500,1796
1057.655000,1806
1057.655500,1800
1057.656000,1798
1057.656500,1798
1057.657000,1799
1057.657500,1796
1057.658000,1794
1057.658500,1791
1057.659000,1792
1057.659500,1790
1057.660000,1795
1057.660500,1793
1057.661000,1788
1057.661500,1789
1057.662000,1794
1057.662500,1791
1057.663000,1792
1057.663500,1799
1057.664000,1802
1057.664500,1798
1057.665000,1794
1057.665500,1801
1057.666000,1812
1057.666500,1800
1057.667000,1801
1057.667500,1802
1057.668000,1800
1057.668500,1798
1057.669000,1806
1057.669500,1791
1057.670000,1806
1057.670500,1806
1057.671000,1801
1057.671500,1797
1057.672000,1800
1057.672500,1790
1057.673000,1790
1057.673500,1786
1057.674000,1783
1057.674500,1783
1057.675000,1781
1057.675500,1777
1057.676000,1787
1057.676500,1786
1057.677000,1787
1057.677500,1794
1057.678000,1791
1057.678500,1790
1057.679000,1788
1057.679500,1797
1057.680000,1808
1057.680500,1788
1057.681000,1791
1057.681500,1793
1057.682000,1804
1057.682500,1795
1057.683000,1796
1057.683500,1818
1057.684000,1794
1057.684500,1799
1057.685000,1798
1057.685500,1811
1057.686000,1809
1057.686500,1808
1057.687000,1813
1057.687500,1804
1057.688000,1798
1057.688500,1796
1057.689000,1799
1057.689500,1789
1057.690000,1779
1057.690500,1775
1057.691000,1781
1057.691500,1775
1057.692000,1797
1057.692500,1790
1057.693000,1796
1057.693500,1795
1057.694000,1793
1057.694500,1800
1057.695000,1788
1057.695500,1801
1057.696000,1804
1057.696500,1807
1057.697000,1801
1057.697500,1800
1057.698000,1793
1057.698500,1795
1057.699000,1802
1057.699500,1809
1057.700000,1821
1057.700500,1838
1057.701000,1805
1057.701500,1802
1057.702000,1798
1057.702500,1806
1057.703000,1786
1057.703500,1773
1057.704000,1773
1057.704500,1783
1057.705000,1789
1057.705500,1808
1057.706000,1806
1057.706500,1797
1057.707000,1790
1057.707500,1772
1057.708000,1778
1057.708500,1761
1057.709000,1765
1057.709500,1781
1057.710000,1798
1057.710500,1799
1057.711000,1809
1057.711500,1803
1057.712000,1806
1057.712500,1809
1057.713000,1800
1057.713500,1794
1057.714000,1801
1057.714500,1802
1057.715000,1782
1057.715500,1800
1057.716000,1800
1057.716500,1792
1057.717000,1782
1057.717500,1784
1057.718000,1794
1057.718500,1794
1057.719000,1786
1057.719500,1793
1057.720000,1796
1057.720500,1782
1057.721000,1782
1057.721500,1793
1057.722000,1793
1057.722500,1786
1057.723000,1783
1057.723500,1789
1057.724000,1783
1057.724500,1789
1057.725000,1793
1057.725500,1795
1057.726000,1792
1057.726500,1803
1057.727000,1805
1057.727500,1800
1057.728000,1797
1057.728500,1802
1057.729000,1801
1057.729500,1788
1057.730000,1805
1057.730500,1799
1057.731000,1812
1057.731500,1809
1057.732000,1818
1057.732500,1810
1057.733000,1807
1057.733500,1805
1057.734000,1790
1057.734500,1783
1057.735000,1781
1057.735500,1799
1057.736000,1788
1057.736500,1797
1057.737000,1806
1057.737500,1807
1057.738000,1802
1057.738500,1810
1057.739000,1809
1057.739500,1805
1057.740000,1785
1057.740500,1793
1057.741000,1782
1057.741500,1779
1057.742000,1788
1057.742500,1799
1057.743000,1813
1057.743500,1789
1057.744000,1781
1057.744500,1779
1057.745000,1781
1057.745500,1795
1057.746000,1793
1057.746500,1806
1057.747000,1790
1057.747500,1783
1057.748000,1778
1057.748500,1796
1057.749000,1798
1057.749500,1795
1057.750000,1787
1057.750500,1799
1057.751000,1797
1057.751500,1804
1057.752000,1796
1057.752500,1792
1057.753000,1783
1057.753500,1785
1057.754000,1792
1057.754500,1789
1057.755000,1794
1057.755500,1791
1057.756000,1785
1057.756500,1774
1057.757000,1778
1057.757500,1794
1057.758000,1798
1057.758500,1810
1057.759000,1812
1057.759500,1815
1057.760000,1816
1057.760500,1815
1057.761000,1835
1057.761500,1853
1057.762000,1864
1057.762500,1835
1057.763000,1832
1057.763500,1818
1057.764000,1825
1057.764500,1818
1057.765000,1791
1057.765500,1774
1057.766000,1744
1057.766500,1716
1057.767000,1715
1057.767500,1719
1057.768000,1728
1057.768500,1731
1057.769000,1755
1057.769500,1767
1057.770000,1776
1057.770500,1795
1057.771000,1786
1057.771500,1789
1057.772000,1789
1057.772500,1799
1057.773000,1812
1057.773500,1820
1057.774000,1834
1057.774500,1850
1057.775000,1854
1057.775500,1852
1057.776000,1833
1057.776500,1827
1057.777000,1841
1057.777500,1826
1057.778000,1814
1057.778500,1781
1057.779000,1751
1057.779500,1726
1057.780000,1734
1057.780500,1760
1057.781000,1762
1057.781500,1768
1057.782000,1783
1057.782500,1795
1057.783000,1816
1057.783500,1808
1057.784000,1812
1057.784500,1808
1057.785000,1808
1057.785500,1792
1057.786000,1777
1057.786500,1788
1057.787000,1785
1057.787500,1797
1057.788000,1804
1057.788500,1794
1057.789000,1795
1057.789500,1794
1057.790000,1791
1057.790500,1781
1057.791000,1770
1057.791500,1755
1057.792000,1759
1057.792500,1784
1057.793000,1791
1057.793500,1793
1057.794000,1782
1057.794500,1806
1057.795000,1800
1057.795500,1795
1057.796000,1802
1057.796500,1792
1057.797000,1795
1057.797500,1789
1057.798000,1796
1057.798500,1797
1057.799000,1792
1057.799500,1796
1057.800000,1803
1057.800500,1780
1057.801000,1767
1057.801500,1777
1057.802000,1792
1057.802500,1790
1057.803000,1829
1057.803500,1828
1057.804000,1826
1057.804500,1810
1057.805000,1793
1057.805500,1785
1057.806000,1789
