# Subject: DANNY
# Trial:  all_connected
# Notes: 
# Muscles: Ch1
# fs=2000 Hz, nch=1, vref=3.3 V
t_s,ch1_code
69.820000,1810
69.820500,1805
69.821000,1817
69.821500,1796
69.822000,1799
69.822500,1816
69.823000,1830
69.823500,1807
69.824000,1798
69.824500,1822
69.825000,1810
69.825500,1805
69.826000,1823
69.826500,1828
69.827000,1805
69.827500,1816
69.828000,1821
69.828500,1805
69.829000,1795
69.829500,1821
69.830000,1810
69.830500,1802
69.831000,1818
69.831500,1822
69.832000,1802
69.832500,1808
69.833000,1820
69.833500,1803
69.834000,1792
69.834500,1816
69.835000,1807
69.835500,1795
69.836000,1812
69.836500,1818
69.837000,1793
69.837500,1799
69.838000,1818
69.838500,1800
69.839000,1800
69.839500,1814
69.840000,1801
69.840500,1807
69.841000,1811
69.841500,1819
69.842000,1802
69.842500,1822
69.843000,1834
69.843500,1803
69.844000,1802
69.844500,1818
69.845000,1811
69.845500,1803
69.846000,1817
69.846500,1818
69.847000,1810
69.847500,1783
69.848000,1820
69.848500,1808
69.849000,1797
69.849500,1819
69.850000,1829
69.850500,1796
69.851000,1813
69.851500,1820
69.852000,1803
69.852500,1802
69.853000,1819
69.853500,1812
69.854000,1797
69.854500,1813
69.855000,1823
69.855500,1802
69.856000,1813
69.856500,1819
69.857000,1810
69.857500,1799
69.858000,1810
69.858500,1806
69.859000,1800
69.859500,1814
69.860000,1820
69.860500,1803
69.861000,1815
69.861500,1826
69.862000,1809
69.862500,1795
69.863000,1826
69.863500,1802
69.864000,1804
69.864500,1817
69.865000,1824
69.865500,1807
69.866000,1802
69.866500,1819
69.867000,1806
69.867500,1799
69.868000,1814
69.868500,1825
69.869000,1794
69.869500,1814
69.870000,1825
69.870500,1813
69.871000,1800
69.871500,1821
69.872000,1806
69.872500,1793
69.873000,1818
69.873500,1819
69.874000,1805
69.874500,1813
69.875000,1816
69.875500,1803
69.876000,1795
69.876500,1805
69.877000,1806
69.877500,1788
69.878000,1809
69.878500,1812
69.879000,1799
69.879500,1803
69.880000,1824
69.880500,1804
69.881000,1778
69.881500,1822
69.882000,1814
69.882500,1796
69.883000,1808
69.883500,1830
69.884000,1808
69.884500,1826
69.885000,1818
69.885500,1808
69.886000,1802
69.886500,1815
69.887000,1822
69.887500,1804
69.888000,1819
69.888500,1822
69.889000,1801
69.889500,1798
69.890000,1822
69.890500,1811
69.891000,1794
69.891500,1821
69.892000,1822
69.892500,1802
69.893000,1814
69.893500,1820
69.894000,1808
69.894500,1794
69.895000,1812
69.895500,1805
69.896000,1798
69.896500,1810
69.897000,1823
69.897500,1797
69.898000,1805
69.898500,1817
69.899000,1792
69.899500,1801
69.900000,1826
69.900500,1813
69.901000,1802
69.901500,1818
69.902000,1826
69.902500,1807
69.903000,1814
69.903500,1821
69.904000,1807
69.904500,1789
69.905000,1820
69.905500,1819
69.906000,1805
69.906500,1810
69.907000,1822
69.907500,1810
69.908000,1832
69.908500,1820
69.909000,1807
69.909500,1792
69.910000,1818
69.910500,1795
69.911000,1803
69.911500,1812
69.912000,1822
69.912500,1801
69.913000,1804
69.913500,1817
69.914000,1804
69.914500,1795
69.915000,1812
69.915500,1816
69.916000,1800
69.916500,1813
69.917000,1811
69.917500,1800
69.918000,1802
69.918500,1820
69.919000,1807
69.919500,1799
69.920000,1813
69.920500,1822
69.921000,1816
69.921500,1817
69.922000,1825
69.922500,1807
69.923000,1801
69.923500,1825
69.924000,1807
69.924500,1800
69.925000,1823
69.925500,1823
69.926000,1800
69.926500,1816
69.927000,1822
69.927500,1807
69.928000,1792
69.928500,1820
69.929000,1812
69.929500,1803
69.930000,1821
69.930500,1826
69.931000,1809
69.931500,1874
69.932000,1822
69.932500,1805
69.933000,1791
69.933500,1823
69.934000,1802
69.934500,1794
69.935000,1811
69.935500,1809
69.936000,1796
69.936500,1825
69.937000,1818
69.937500,1802
69.938000,1792
69.938500,1812
69.939000,1818
69.939500,1794
69.940000,1820
69.940500,1821
69.941000,1802
69.941500,1794
69.942000,1826
69.942500,1812
69.943000,1799
69.943500,1820
69.944000,1829
69.944500,1801
69.945000,1818
69.945500,1823
69.946000,1813
69.946500,1804
69.947000,1817
69.947500,1810
69.948000,1800
69.948500,1819
69.949000,1823
69.949500,1804
69.950000,1823
69.950500,1824
69.951000,1802
69.951500,1800
69.952000,1820
69.952500,1802
69.953000,1800
69.953500,1809
69.954000,1824
69.954500,1800
69.955000,1806
69.955500,1815
69.956000,1800
69.956500,1791
69.957000,1815
69.957500,1804
69.958000,1799
69.958500,1815
69.959000,1818
69.959500,1804
69.960000,1803
69.960500,1819
69.961000,1811
69.961500,1802
69.962000,1813
69.962500,1828
69.963000,1808
69.963500,1818
69.964000,1826
69.964500,1805
69.965000,1800
69.965500,1818
69.966000,1812
69.966500,1807
69.967000,1817
69.967500,1822
69.968000,1799
69.968500,1815
69.969000,1818
69.969500,1786
69.970000,1799
69.970500,1818
69.971000,1818
69.971500,1797
69.972000,1808
69.972500,1822
69.973000,1806
69.973500,1828
69.974000,1819
69.974500,1805
69.975000,1799
69.975500,1811
69.976000,1818
69.976500,1799
69.977000,1816
69.977500,1820
69.978000,1792
69.978500,1801
69.979000,1818
69.979500,1801
69.980000,1798
69.980500,1812
69.981000,1819
69.981500,1818
69.982000,1812
69.982500,1824
69.983000,1808
69.983500,1788
69.984000,1820
69.984500,1812
69.985000,1806
69.985500,1818
69.986000,1819
69.986500,1807
69.987000,1829
69.987500,1826
69.988000,1794
69.988500,1802
69.989000,1813
69.989500,1825
69.990000,1806
69.990500,1819
69.991000,1825
69.991500,1803
69.992000,1798
69.992500,1819
69.993000,1807
69.993500,1801
69.994000,1820
69.994500,1826
69.995000,1804
69.995500,1815
69.996000,1815
69.996500,1800
69.997000,1789
69.997500,1826
69.998000,1813
69.998500,1796
69.999000,1806
69.999500,1824
70.000000,1807
70.000500,1815
70.001000,1824
70.001500,1810
70.002000,1800
70.002500,1814
70.003000,1801
70.003500,1799
70.004000,1816
70.004500,1822
70.005000,1802
70.005500,1804
70.006000,1819
70.006500,1808
70.007000,1797
70.007500,1819
70.008000,1819
70.008500,1801
70.009000,1811
70.009500,1818
70.010000,1807
70.010500,1797
70.011000,1814
70.011500,1802
70.012000,1799
70.012500,1820
70.013000,1815
70.013500,1804
70.014000,1814
70.014500,1816
70.015000,1804
70.015500,1794
70.016000,1819
70.016500,1810
70.017000,1794
70.017500,1813
70.018000,1817
70.018500,1797
70.019000,1851
70.019500,1818
70.020000,1808
70.020500,1802
70.021000,1818
70.021500,1804
70.022000,1805
70.022500,1818
70.023000,1823
70.023500,1808
70.024000,1798
70.024500,1822
70.025000,1809
70.025500,1798
70.026000,1819
70.026500,1815
70.027000,1802
70.027500,1818
70.028000,1822
70.028500,1798
70.029000,1796
70.029500,1817
70.030000,1812
70.030500,1802
70.031000,1816
70.031500,1817
70.032000,1794
70.032500,1814
70.033000,1825
70.033500,1803
70.034000,1794
70.034500,1819
70.035000,1806
70.035500,1791
70.036000,1808
70.036500,1814
70.037000,1790
70.037500,1795
70.038000,1814
70.038500,1810
70.039000,1806
70.039500,1819
70.040000,1829
70.040500,1800
70.041000,1814
70.041500,1826
70.042000,1811
70.042500,1797
70.043000,1827
70.043500,1812
70.044000,1800
70.044500,1819
70.045000,1824
70.045500,1802
70.046000,1812
70.046500,1820
70.047000,1806
70.047500,1792
70.048000,1816
70.048500,1838
70.049000,1798
70.049500,1813
70.050000,1829
70.050500,1806
70.051000,1816
70.051500,1818
70.052000,1808
70.052500,1802
70.053000,1813
70.053500,1799
70.054000,1797
70.054500,1819
70.055000,1820
70.055500,1806
70.056000,1822
70.056500,1813
70.057000,1804
70.057500,1795
70.058000,1804
70.058500,1814
70.059000,1793
70.059500,1810
70.060000,1822
70.060500,1804
70.061000,1804
70.061500,1819
70.062000,1804
70.062500,1797
70.063000,1821
70.063500,1821
70.064000,1807
70.064500,1818
70.065000,1825
70.065500,1807
70.066000,1811
70.066500,1819
70.067000,1813
70.067500,1799
70.068000,1813
70.068500,1820
70.069000,1804
70.069500,1824
70.070000,1815
70.070500,1808
70.071000,1797
70.071500,1816
70.072000,1827
70.072500,1796
70.073000,1815
70.073500,1820
70.074000,1802
70.074500,1790
70.075000,1815
70.075500,1802
70.076000,1801
70.076500,1818
70.077000,1811
70.077500,1798
70.078000,1816
70.078500,1813
70.079000,1794
70.079500,1799
70.080000,1825
70.080500,1821
70.081000,1799
70.081500,1811
70.082000,1818
70.082500,1806
70.083000,1811
70.083500,1825
70.084000,1810
70.084500,1800
70.085000,1828
70.085500,1800
70.086000,1802
70.086500,1813
70.087000,1818
70.087500,1805
70.088000,1806
70.088500,1818
70.089000,1790
70.089500,1800
70.090000,1824
70.090500,1822
70.091000,1801
70.091500,1820
70.092000,1820
70.092500,1800
70.093000,1801
70.093500,1819
70.094000,1809
70.094500,1794
70.095000,1812
70.095500,1821
70.096000,1800
70.096500,1805
70.097000,1814
70.097500,1799
70.098000,1791
70.098500,1829
70.099000,1810
70.099500,1798
70.100000,1817
70.100500,1826
70.101000,1808
70.101500,1814
70.102000,1818
70.102500,1806
70.103000,1804
70.103500,1828
70.104000,1804
70.104500,1799
70.105000,1822
70.105500,1822
70.106000,1806
70.106500,1797
70.107000,1814
70.107500,1804
70.108000,1797
70.108500,1811
70.109000,1825
70.109500,1798
70.110000,1815
70.110500,1822
70.111000,1808
70.111500,1800
70.112000,1818
70.112500,1808
70.113000,1800
70.113500,1822
70.114000,1828
70.114500,1794
70.115000,1818
70.115500,1819
70.116000,1799
70.116500,1795
70.117000,1812
70.117500,1813
70.118000,1796
70.118500,1814
70.119000,1826
70.119500,1798
70.120000,1832
70.120500,1822
70.121000,1798
70.121500,1800
70.122000,1822
70.122500,1799
70.123000,1801
70.123500,1817
70.124000,1825
70.124500,1802
70.125000,1796
70.125500,1822
70.126000,1806
70.126500,1800
70.127000,1819
70.127500,1818
70.128000,1802
70.128500,1830
70.129000,1818
70.129500,1799
70.130000,1800
70.130500,1822
70.131000,1809
70.131500,1800
70.132000,1820
70.132500,1826
70.133000,1805
70.133500,1808
70.134000,1821
70.134500,1803
70.135000,1794
70.135500,1814
70.136000,1804
70.136500,1801
70.137000,1817
70.137500,1811
70.138000,1798
70.138500,1802
70.139000,1817
70.139500,1803
70.140000,1796
70.140500,1830
70.141000,1817
70.141500,1803
70.142000,1821
70.142500,1830
70.143000,1801
70.143500,1799
70.144000,1826
70.144500,1810
70.145000,1794
70.145500,1818
70.146000,1822
70.146500,1807
70.147000,1816
70.147500,1822
70.148000,1805
70.148500,1796
70.149000,1810
70.149500,1806
70.150000,1800
70.150500,1820
70.151000,1821
70.151500,1806
70.152000,1814
70.152500,1819
70.153000,1806
70.153500,1796
70.154000,1822
70.154500,1806
70.155000,1800
70.155500,1813
70.156000,1821
70.156500,1800
70.157000,1815
70.157500,1811
70.158000,1799
70.158500,1788
70.159000,1827
70.159500,1809
70.160000,1791
70.160500,1810
70.161000,1821
70.161500,1795
70.162000,1823
70.162500,1823
70.163000,1806
70.163500,1797
70.164000,1820
70.164500,1804
70.165000,1797
70.165500,1817
70.166000,1824
70.166500,1796
70.167000,1804
70.167500,1818
70.168000,1790
70.168500,1803
70.169000,1814
70.169500,1825
70.170000,1802
70.170500,1823
70.171000,1828
70.171500,1804
70.172000,1800
70.172500,1819
70.173000,1805
70.173500,1798
70.174000,1810
70.174500,1822
70.175000,1802
70.175500,1804
70.176000,1814
70.176500,1795
70.177000,1804
70.177500,1815
70.178000,1806
70.178500,1799
70.179000,1811
70.179500,1814
70.180000,1795
70.180500,1829
70.181000,1817
70.181500,1811
70.182000,1801
70.182500,1812
70.183000,1818
70.183500,1801
70.184000,1820
70.184500,1827
70.185000,1806
70.185500,1798
70.186000,1832
70.186500,1810
70.187000,1802
70.187500,1820
70.188000,1825
70.188500,1809
70.189000,1813
70.189500,1820
70.190000,1809
70.190500,1806
70.191000,1819
70.191500,1808
70.192000,1802
70.192500,1820
70.193000,1830
70.193500,1808
70.194000,1811
70.194500,1820
70.195000,1805
70.195500,1794
70.196000,1808
70.196500,1792
70.197000,1794
70.197500,1807
70.198000,1819
70.198500,1806
70.199000,1792
70.199500,1810
70.200000,1812
70.200500,1806
70.201000,1816
70.201500,1818
70.202000,1810
70.202500,1812
70.203000,1825
70.203500,1810
70.204000,1801
70.204500,1825
70.205000,1810
70.205500,1804
70.206000,1817
70.206500,1827
70.207000,1802
70.207500,1820
70.208000,1817
70.208500,1806
70.209000,1794
70.209500,1818
70.210000,1819
70.210500,1811
70.211000,1817
70.211500,1818
70.212000,1804
70.212500,1796
70.213000,1823
70.213500,1805
70.214000,1810
70.214500,1819
70.215000,1826
70.215500,1803
70.216000,1811
70.216500,1815
70.217000,1804
70.217500,1793
70.218000,1812
70.218500,1806
70.219000,1801
70.219500,1818
70.220000,1831
70.220500,1792
70.221000,1795
70.221500,1821
70.222000,1807
70.222500,1802
70.223000,1826
70.223500,1831
70.224000,1803
70.224500,1818
70.225000,1826
70.225500,1808
70.226000,1796
70.226500,1819
70.227000,1810
70.227500,1803
70.228000,1821
70.228500,1820
70.229000,1802
70.229500,1815
70.230000,1820
70.230500,1809
70.231000,1803
70.231500,1815
70.232000,1804
70.232500,1802
70.233000,1818
70.233500,1824
70.234000,1802
70.234500,1810
70.235000,1818
70.235500,1800
70.236000,1797
70.236500,1810
70.237000,1797
70.237500,1794
70.238000,1818
70.238500,1814
70.239000,1801
70.239500,1790
70.240000,1813
70.240500,1806
70.241000,1797
70.241500,1806
70.242000,1832
70.242500,1801
70.243000,1821
70.243500,1822
70.244000,1808
70.244500,1799
70.245000,1826
70.245500,1810
70.246000,1800
70.246500,1818
70.247000,1829
70.247500,1804
70.248000,1821
70.248500,1819
70.249000,1806
70.249500,1799
70.250000,1823
70.250500,1807
70.251000,1802
70.251500,1817
70.252000,1822
70.252500,1796
70.253000,1813
70.253500,1818
70.254000,1804
70.254500,1793
70.255000,1820
70.255500,1802
70.256000,1793
70.256500,1817
70.257000,1813
70.257500,1798
70.258000,1785
70.258500,1823
70.259000,1807
70.259500,1798
70.260000,1819
70.260500,1822
70.261000,1796
70.261500,1819
70.262000,1823
70.262500,1801
70.263000,1805
70.263500,1816
70.264000,1812
70.264500,1801
70.265000,1818
70.265500,1825
70.266000,1812
70.266500,1820
70.267000,1824
70.267500,1807
70.268000,1796
70.268500,1820
70.269000,1812
70.269500,1801
70.270000,1812
70.270500,1823
70.271000,1805
70.271500,1834
70.272000,1822
70.272500,1810
70.273000,1796
70.273500,1815
70.274000,1802
70.274500,1796
70.275000,1810
70.275500,1822
70.276000,1807
70.276500,1790
70.277000,1812
70.277500,1806
70.278000,1798
70.278500,1805
70.279000,1811
70.279500,1796
70.280000,1816
70.280500,1822
70.281000,1810
70.281500,1781
70.282000,1824
70.282500,1812
70.283000,1800
70.283500,1811
70.284000,1830
70.284500,1800
70.285000,1816
70.285500,1824
70.286000,1803
70.286500,1799
70.287000,1814
70.287500,1809
70.288000,1804
70.288500,1818
70.289000,1825
70.289500,1801
70.290000,1794
70.290500,1822
70.291000,1804
70.291500,1793
70.292000,1817
70.292500,1806
70.293000,1798
70.293500,1819
70.294000,1824
70.294500,1802
70.295000,1826
70.295500,1816
70.296000,1805
70.296500,1795
70.297000,1817
70.297500,1803
70.298000,1802
70.298500,1818
70.299000,1825
70.299500,1791
70.300000,1798
70.300500,1819
70.301000,1804
70.301500,1801
70.302000,1821
70.302500,1831
70.303000,1806
70.303500,1820
70.304000,1825
70.304500,1806
70.305000,1800
70.305500,1822
70.306000,1810
70.306500,1799
70.307000,1816
70.307500,1819
70.308000,1811
70.308500,1830
70.309000,1816
70.309500,1789
70.310000,1805
70.310500,1812
70.311000,1819
70.311500,1798
70.312000,1818
70.312500,1820
70.313000,1808
70.313500,1791
70.314000,1818
70.314500,1805
70.315000,1798
70.315500,1814
70.316000,1823
70.316500,1802
70.317000,1809
70.317500,1812
70.318000,1800
70.318500,1788
70.319000,1821
70.319500,1805
70.320000,1801
70.320500,1813
70.321000,1820
70.321500,1809
70.322000,1815
70.322500,1822
70.323000,1808
70.323500,1795
70.324000,1826
70.324500,1808
70.325000,1800
70.325500,1815
70.326000,1817
70.326500,1804
70.327000,1797
70.327500,1818
70.328000,1808
70.328500,1797
70.329000,1812
70.329500,1827
70.330000,1810
70.330500,1814
70.331000,1824
70.331500,1805
70.332000,1794
70.332500,1813
70.333000,1813
70.333500,1801
70.334000,1811
70.334500,1824
70.335000,1801
70.335500,1803
70.336000,1815
70.336500,1798
70.337000,1799
70.337500,1814
70.338000,1802
70.338500,1794
70.339000,1810
70.339500,1821
70.340000,1806
70.340500,1795
70.341000,1819
70.341500,1809
70.342000,1802
70.342500,1816
70.343000,1826
70.343500,1801
70.344000,1810
70.344500,1825
70.345000,1816
70.345500,1799
70.346000,1819
70.346500,1819
70.347000,1797
70.347500,1818
70.348000,1816
70.348500,1806
70.349000,1811
70.349500,1821
70.350000,1803
70.350500,1798
70.351000,1821
70.351500,1798
70.352000,1799
70.352500,1818
70.353000,1816
70.353500,1801
70.354000,1798
70.354500,1816
70.355000,1808
70.355500,1796
70.356000,1810
70.356500,1809
70.357000,1795
70.357500,1808
70.358000,1821
70.358500,1802
70.359000,1797
70.359500,1814
70.360000,1806
70.360500,1797
70.361000,1824
70.361500,1818
70.362000,1809
70.362500,1821
70.363000,1825
70.363500,1808
70.364000,1799
70.364500,1822
70.365000,1826
70.365500,1798
70.366000,1819
70.366500,1822
70.367000,1806
70.367500,1794
70.368000,1822
70.368500,1807
70.369000,1788
70.369500,1812
70.370000,1828
70.370500,1801
70.371000,1816
70.371500,1823
70.372000,1808
70.372500,1797
70.373000,1824
70.373500,1807
70.374000,1800
70.374500,1811
70.375000,1821
70.375500,1800
70.376000,1806
70.376500,1813
70.377000,1808
70.377500,1790
70.378000,1813
70.378500,1807
70.379000,1800
70.379500,1816
70.380000,1822
70.380500,1816
70.381000,1799
70.381500,1815
70.382000,1802
70.382500,1805
70.383000,1820
70.383500,1830
70.384000,1798
70.384500,1820
70.385000,1826
70.385500,1807
70.386000,1798
70.386500,1818
70.387000,1810
70.387500,1801
70.388000,1815
70.388500,1823
70.389000,1798
70.389500,1816
70.390000,1825
70.390500,1810
70.391000,1806
70.391500,1812
70.392000,1807
70.392500,1803
70.393000,1812
70.393500,1828
70.394000,1805
70.394500,1788
70.395000,1818
70.395500,1802
70.396000,1795
70.396500,1818
70.397000,1818
70.397500,1794
70.398000,1810
70.398500,1820
70.399000,1799
70.399500,1790
70.400000,1822
70.400500,1801
70.401000,1798
70.401500,1824
70.402000,1820
70.402500,1817
70.403000,1815
70.403500,1826
70.404000,1808
70.404500,1798
70.405000,1822
70.405500,1812
70.406000,1801
70.406500,1817
70.407000,1824
70.407500,1803
70.408000,1780
70.408500,1815
70.409000,1796
70.409500,1800
70.410000,1825
70.410500,1834
70.411000,1805
70.411500,1815
70.412000,1818
70.412500,1806
70.413000,1794
70.413500,1829
70.414000,1807
70.414500,1800
70.415000,1815
70.415500,1819
70.416000,1792
70.416500,1810
70.417000,1814
70.417500,1808
70.418000,1800
70.418500,1828
70.419000,1805
70.419500,1797
70.420000,1801
70.420500,1826
70.421000,1810
70.421500,1828
70.422000,1828
70.422500,1804
70.423000,1790
70.423500,1824
70.424000,1825
70.424500,1796
70.425000,1820
70.425500,1820
70.426000,1807
70.426500,1798
70.427000,1820
70.427500,1808
70.428000,1802
70.428500,1814
70.429000,1823
70.429500,1799
70.430000,1824
70.430500,1821
70.431000,1806
70.431500,1803
70.432000,1816
70.432500,1814
70.433000,1801
70.433500,1819
70.434000,1833
70.434500,1801
70.435000,1824
70.435500,1821
70.436000,1804
70.436500,1794
70.437000,1823
70.437500,1783
70.438000,1791
70.438500,1813
70.439000,1814
70.439500,1810
70.440000,1804
70.440500,1821
70.441000,1805
70.441500,1799
70.442000,1821
70.442500,1833
70.443000,1796
70.443500,1821
70.444000,1822
70.444500,1806
70.445000,1800
70.445500,1823
70.446000,1813
70.446500,1797
70.447000,1821
70.447500,1828
70.448000,1799
70.448500,1812
70.449000,1823
70.449500,1809
70.450000,1798
70.450500,1822
70.451000,1813
70.451500,1795
70.452000,1819
70.452500,1820
70.453000,1807
70.453500,1819
70.454000,1820
70.454500,1808
70.455000,1801
70.455500,1810
70.456000,1805
70.456500,1799
70.457000,1811
70.457500,1816
70.458000,1808
70.458500,1799
70.459000,1813
70.459500,1800
70.460000,1802
70.460500,1814
70.461000,1827
70.461500,1802
70.462000,1811
70.462500,1823
70.463000,1813
70.463500,1802
70.464000,1819
70.464500,1810
70.465000,1804
70.465500,1819
70.466000,1827
70.466500,1803
70.467000,1808
70.467500,1825
70.468000,1806
70.468500,1803
70.469000,1816
70.469500,1805
70.470000,1802
70.470500,1820
70.471000,1823
70.471500,1804
70.472000,1802
70.472500,1820
70.473000,1806
70.473500,1795
70.474000,1821
70.474500,1822
70.475000,1795
70.475500,1815
70.476000,1817
70.476500,1800
70.477000,1802
70.477500,1816
70.478000,1805
70.478500,1790
70.479000,1814
70.479500,1827
70.480000,1806
70.480500,1818
70.481000,1820
70.481500,1803
70.482000,1804
70.482500,1823
70.483000,1809
70.483500,1787
70.484000,1823
70.484500,1827
70.485000,1808
70.485500,1814
70.486000,1817
70.486500,1812
70.487000,1799
70.487500,1819
70.488000,1799
70.488500,1799
70.489000,1817
70.489500,1817
70.490000,1809
70.490500,1805
70.491000,1819
70.491500,1806
70.492000,1801
70.492500,1823
70.493000,1821
70.493500,1813
70.494000,1814
70.494500,1825
70.495000,1802
70.495500,1798
70.496000,1815
70.496500,1805
70.497000,1798
70.497500,1805
70.498000,1818
70.498500,1798
70.499000,1807
70.499500,1811
70.500000,1804
70.500500,1782
70.501000,1815
70.501500,1810
70.502000,1796
70.502500,1814
70.503000,1830
70.503500,1801
70.504000,1797
70.504500,1825
70.505000,1811
70.505500,1804
70.506000,1817
70.506500,1824
70.507000,1802
70.507500,1814
70.508000,1822
70.508500,1803
70.509000,1788
70.509500,1814
70.510000,1812
70.510500,1803
70.511000,1824
70.511500,1829
70.512000,1798
70.512500,1816
70.513000,1827
70.513500,1804
70.514000,1794
70.514500,1816
70.515000,1810
70.515500,1798
70.516000,1810
70.516500,1809
70.517000,1791
70.517500,1814
70.518000,1819
70.518500,1803
70.519000,1802
70.519500,1818
70.520000,1810
70.520500,1808
70.521000,1817
70.521500,1822
70.522000,1805
70.522500,1794
70.523000,1826
70.523500,1812
70.524000,1804
70.524500,1820
70.525000,1831
70.525500,1802
70.526000,1817
70.526500,1818
70.527000,1807
70.527500,1798
70.528000,1821
70.528500,1809
70.529000,1797
70.529500,1815
70.530000,1834
70.530500,1803
70.531000,1826
70.531500,1821
70.532000,1800
70.532500,1790
70.533000,1818
70.533500,1821
70.534000,1798
70.534500,1819
70.535000,1820
70.535500,1802
70.536000,1794
70.536500,1808
70.537000,1805
70.537500,1798
70.538000,1808
70.538500,1819
70.539000,1798
70.539500,1806
70.540000,1827
70.540500,1811
70.541000,1791
70.541500,1817
70.542000,1808
70.542500,1796
70.543000,1824
70.543500,1828
70.544000,1807
70.544500,1802
70.545000,1824
70.545500,1808
70.546000,1800
70.546500,1813
70.547000,1829
70.547500,1802
70.548000,1818
70.548500,1818
70.549000,1804
70.549500,1778
70.550000,1818
70.550500,1806
70.551000,1805
70.551500,1819
70.552000,1822
70.552500,1808
70.553000,1813
70.553500,1821
70.554000,1806
70.554500,1799
70.555000,1822
70.555500,1806
70.556000,1798
70.556500,1808
70.557000,1819
70.557500,1801
70.558000,1795
70.558500,1814
70.559000,1796
70.559500,1791
70.560000,1817
70.560500,1824
70.561000,1802
70.561500,1815
70.562000,1832
70.562500,1798
70.563000,1792
70.563500,1829
70.564000,1811
70.564500,1801
70.565000,1818
70.565500,1822
70.566000,1802
70.566500,1806
70.567000,1823
70.567500,1802
70.568000,1801
70.568500,1820
70.569000,1798
70.569500,1794
70.570000,1814
70.570500,1826
70.571000,1807
70.571500,1800
70.572000,1818
70.572500,1808
70.573000,1802
70.573500,1818
70.574000,1830
70.574500,1807
70.575000,1811
70.575500,1815
70.576000,1807
70.576500,1798
70.577000,1813
70.577500,1805
70.578000,1799
70.578500,1814
70.579000,1815
70.579500,1802
70.580000,1813
70.580500,1822
70.581000,1802
70.581500,1806
70.582000,1823
70.582500,1816
70.583000,1798
70.583500,1817
70.584000,1816
70.584500,1807
70.585000,1824
70.585500,1820
70.586000,1810
70.586500,1801
70.587000,1819
70.587500,1830
70.588000,1802
70.588500,1814
70.589000,1819
70.589500,1803
70.590000,1804
70.590500,1823
70.591000,1809
70.591500,1804
70.592000,1813
70.592500,1820
70.593000,1804
70.593500,1810
70.594000,1823
70.594500,1806
70.595000,1802
70.595500,1814
70.596000,1810
70.596500,1797
70.597000,1806
70.597500,1819
70.598000,1802
70.598500,1791
70.599000,1814
70.599500,1806
70.600000,1808
70.600500,1819
70.601000,1839
70.601500,1796
70.602000,1814
70.602500,1828
70.603000,1811
70.603500,1798
70.604000,1824
70.604500,1808
70.605000,1799
70.605500,1818
70.606000,1825
70.606500,1804
70.607000,1814
70.607500,1817
70.608000,1807
70.608500,1792
70.609000,1818
70.609500,1816
70.610000,1798
70.610500,1815
70.611000,1825
70.611500,1800
70.612000,1826
70.612500,1817
70.613000,1811
70.613500,1801
70.614000,1826
70.614500,1823
70.615000,1802
70.615500,1815
70.616000,1815
70.616500,1810
70.617000,1807
70.617500,1818
70.618000,1801
70.618500,1796
70.619000,1819
70.619500,1821
70.620000,1809
70.620500,1823
70.621000,1819
70.621500,1803
70.622000,1802
70.622500,1831
70.623000,1810
70.623500,1797
70.624000,1817
70.624500,1828
70.625000,1809
70.625500,1798
70.626000,1819
70.626500,1811
70.627000,1803
70.627500,1819
70.628000,1820
70.628500,1809
70.629000,1816
70.629500,1819
70.630000,1804
70.630500,1787
70.631000,1822
70.631500,1805
70.632000,1802
70.632500,1821
70.633000,1826
70.633500,1806
70.634000,1814
70.634500,1820
70.635000,1807
70.635500,1798
70.636000,1810
70.636500,1807
70.637000,1793
70.637500,1815
70.638000,1818
70.638500,1802
70.639000,1786
70.639500,1829
70.640000,1815
70.640500,1801
70.641000,1814
70.641500,1830
70.642000,1804
70.642500,1818
70.643000,1821
70.643500,1809
70.644000,1804
70.644500,1824
70.645000,1812
70.645500,1799
70.646000,1817
70.646500,1824
70.647000,1805
70.647500,1818
70.648000,1820
70.648500,1807
70.649000,1798
70.649500,1817
70.650000,1801
70.650500,1806
70.651000,1818
70.651500,1818
70.652000,1808
70.652500,1797
70.653000,1820
70.653500,1806
70.654000,1804
70.654500,1822
70.655000,1829
70.655500,1800
70.656000,1810
70.656500,1810
70.657000,1803
70.657500,1798
70.658000,1815
70.658500,1800
70.659000,1783
70.659500,1816
70.660000,1830
70.660500,1797
70.661000,1826
70.661500,1828
70.662000,1807
70.662500,1803
70.663000,1821
70.663500,1820
70.664000,1799
70.664500,1820
70.665000,1824
70.665500,1812
70.666000,1799
70.666500,1816
70.667000,1810
70.667500,1803
70.668000,1814
70.668500,1818
70.669000,1805
70.669500,1818
70.670000,1828
70.670500,1802
70.671000,1804
70.671500,1819
70.672000,1808
70.672500,1796
70.673000,1818
70.673500,1823
70.674000,1802
70.674500,1794
70.675000,1824
70.675500,1803
70.676000,1799
70.676500,1812
70.677000,1813
70.677500,1794
70.678000,1815
70.678500,1819
70.679000,1806
70.679500,1817
70.680000,1824
70.680500,1798
70.681000,1801
70.681500,1817
70.682000,1824
70.682500,1795
70.683000,1827
70.683500,1827
70.684000,1801
70.684500,1799
70.685000,1828
70.685500,1811
70.686000,1806
70.686500,1810
70.687000,1825
70.687500,1800
70.688000,1812
70.688500,1826
70.689000,1808
70.689500,1802
70.690000,1824
70.690500,1798
70.691000,1800
70.691500,1814
70.692000,1817
70.692500,1805
70.693000,1801
70.693500,1819
70.694000,1809
70.694500,1802
70.695000,1815
70.695500,1822
70.696000,1802
70.696500,1809
70.697000,1816
70.697500,1802
70.698000,1794
70.698500,1812
70.699000,1810
70.699500,1796
70.700000,1815
70.700500,1816
70.701000,1802
70.701500,1830
70.702000,1825
70.702500,1807
70.703000,1799
70.703500,1815
70.704000,1822
70.704500,1804
70.705000,1820
70.705500,1823
70.706000,1803
70.706500,1807
70.707000,1819
70.707500,1809
70.708000,1802
70.708500,1814
70.709000,1820
70.709500,1804
70.710000,1820
70.710500,1826
70.711000,1810
70.711500,1798
70.712000,1822
70.712500,1799
70.713000,1798
70.713500,1816
70.714000,1825
70.714500,1808
70.715000,1796
70.715500,1819
70.716000,1805
70.716500,1799
70.717000,1810
70.717500,1825
70.718000,1800
70.718500,1809
70.719000,1815
70.719500,1806
70.720000,1806
70.720500,1821
70.721000,1786
70.721500,1796
70.722000,1820
70.722500,1825
70.723000,1798
70.723500,1836
70.724000,1826
70.724500,1808
70.725000,1805
70.725500,1821
70.726000,1818
70.726500,1802
70.727000,1816
70.727500,1828
70.728000,1804
70.728500,1796
70.729000,1819
70.729500,1808
70.730000,1801
70.730500,1812
70.731000,1827
70.731500,1796
70.732000,1811
70.732500,1815
70.733000,1805
70.733500,1803
70.734000,1820
70.734500,1822
70.735000,1796
70.735500,1816
70.736000,1818
70.736500,1804
70.737000,1791
70.737500,1817
70.738000,1796
70.738500,1794
70.739000,1808
70.739500,1814
70.740000,1798
70.740500,1806
70.741000,1812
70.741500,1806
70.742000,1800
70.742500,1829
70.743000,1806
70.743500,1805
70.744000,1822
70.744500,1830
70.745000,1804
70.745500,1811
70.746000,1827
70.746500,1800
70.747000,1803
70.747500,1813
70.748000,1801
70.748500,1810
70.749000,1818
70.749500,1824
70.750000,1811
70.750500,1794
70.751000,1819
70.751500,1804
70.752000,1796
70.752500,1819
70.753000,1820
70.753500,1804
70.754000,1809
70.754500,1819
70.755000,1812
70.755500,1798
70.756000,1813
70.756500,1823
70.757000,1795
70.757500,1820
70.758000,1817
70.758500,1791
70.759000,1815
70.759500,1819
70.760000,1805
70.760500,1804
70.761000,1814
70.761500,1788
70.762000,1800
70.762500,1816
70.763000,1830
70.763500,1808
70.764000,1795
70.764500,1825
70.765000,1805
70.765500,1800
70.766000,1817
70.766500,1819
70.767000,1791
70.767500,1818
70.768000,1822
70.768500,1807
70.769000,1803
70.769500,1822
70.770000,1806
70.770500,1802
70.771000,1814
70.771500,1823
70.772000,1804
70.772500,1820
70.773000,1824
70.773500,1802
70.774000,1792
70.774500,1815
70.775000,1807
70.775500,1799
70.776000,1810
70.776500,1814
70.777000,1790
70.777500,1803
70.778000,1814
70.778500,1803
70.779000,1789
70.779500,1816
70.780000,1817
70.780500,1798
70.781000,1820
70.781500,1823
70.782000,1806
70.782500,1783
70.783000,1828
70.783500,1806
70.784000,1798
70.784500,1826
70.785000,1831
70.785500,1803
70.786000,1819
70.786500,1823
70.787000,1806
70.787500,1806
70.788000,1813
70.788500,1811
70.789000,1806
70.789500,1821
70.790000,1828
70.790500,1808
70.791000,1815
70.791500,1816
70.792000,1799
70.792500,1797
70.793000,1823
70.793500,1818
70.794000,1799
70.794500,1818
70.795000,1822
70.795500,1802
70.796000,1814
70.796500,1812
70.797000,1807
70.797500,1795
70.798000,1820
70.798500,1792
70.799000,1794
70.799500,1810
70.800000,1819
70.800500,1804
70.801000,1797
70.801500,1827
70.802000,1807
70.802500,1801
70.803000,1815
70.803500,1830
70.804000,1796
70.804500,1818
70.805000,1830
70.805500,1806
70.806000,1798
70.806500,1816
70.807000,1807
70.807500,1800
70.808000,1808
70.808500,1820
70.809000,1805
70.809500,1828
70.810000,1825
70.810500,1811
70.811000,1805
70.811500,1815
70.812000,1822
70.812500,1802
70.813000,1812
70.813500,1821
70.814000,1801
70.814500,1793
70.815000,1820
70.815500,1810
70.816000,1799
70.816500,1808
70.817000,1809
70.817500,1806
70.818000,1804
70.818500,1815
70.819000,1793
70.819500,1802
70.820000,1820
70.820500,1813
70.821000,1800
70.821500,1808
70.822000,1828
70.822500,1810
70.823000,1835
70.823500,1827
70.824000,1812
70.824500,1803
70.825000,1821
70.825500,1812
70.826000,1802
70.826500,1814
70.827000,1820
70.827500,1808
70.828000,1799
70.828500,1820
70.829000,1806
70.829500,1785
70.830000,1816
70.830500,1823
70.831000,1805
70.831500,1816
70.832000,1826
70.832500,1803
70.833000,1796
70.833500,1816
70.834000,1805
70.834500,1801
70.835000,1817
70.835500,1824
70.836000,1797
70.836500,1817
70.837000,1814
70.837500,1805
70.838000,1796
70.838500,1819
70.839000,1806
70.839500,1775
70.840000,1826
70.840500,1828
70.841000,1804
70.841500,1796
70.842000,1824
70.842500,1805
70.843000,1803
70.843500,1822
70.844000,1831
70.844500,1800
70.845000,1823
70.845500,1824
70.846000,1814
70.846500,1797
70.847000,1819
70.847500,1812
70.848000,1800
70.848500,1814
70.849000,1816
70.849500,1809
70.850000,1821
70.850500,1822
70.851000,1802
70.851500,1808
70.852000,1812
70.852500,1788
70.853000,1797
70.853500,1817
70.854000,1819
70.854500,1806
70.855000,1800
70.855500,1818
70.856000,1803
70.856500,1798
70.857000,1803
70.857500,1809
70.858000,1790
70.858500,1813
70.859000,1819
70.859500,1798
70.860000,1799
70.860500,1822
70.861000,1812
70.861500,1806
70.862000,1815
70.862500,1826
70.863000,1803
70.863500,1818
70.864000,1827
70.864500,1811
70.865000,1800
70.865500,1826
70.866000,1813
70.866500,1802
70.867000,1820
70.867500,1820
70.868000,1811
70.868500,1814
70.869000,1821
70.869500,1803
70.870000,1798
70.870500,1819
70.871000,1823
70.871500,1798
70.872000,1818
70.872500,1821
70.873000,1798
70.873500,1824
70.874000,1819
70.874500,1803
70.875000,1794
70.875500,1816
70.876000,1816
70.876500,1794
70.877000,1810
70.877500,1823
70.878000,1797
70.878500,1802
70.879000,1819
70.879500,1802
70.880000,1802
70.880500,1826
70.881000,1829
70.881500,1804
70.882000,1822
70.882500,1824
70.883000,1799
70.883500,1791
70.884000,1817
70.884500,1804
70.885000,1800
70.885500,1817
70.886000,1824
70.886500,1809
70.887000,1802
70.887500,1822
70.888000,1808
70.888500,1799
70.889000,1811
70.889500,1806
70.890000,1798
70.890500,1822
70.891000,1828
70.891500,1805
70.892000,1796
70.892500,1813
70.893000,1805
70.893500,1802
70.894000,1815
70.894500,1827
70.895000,1798
70.895500,1808
70.896000,1814
70.896500,1792
70.897000,1794
70.897500,1819
70.898000,1806
70.898500,1802
70.899000,1810
70.899500,1837
70.900000,1802
70.900500,1815
70.901000,1820
70.901500,1812
70.902000,1791
70.902500,1822
70.903000,1812
70.903500,1798
70.904000,1820
70.904500,1826
70.905000,1804
70.905500,1828
70.906000,1821
70.906500,1809
70.907000,1794
70.907500,1812
70.908000,1796
70.908500,1798
70.909000,1820
70.909500,1822
70.910000,1802
70.910500,1806
70.911000,1817
70.911500,1806
70.912000,1801
70.912500,1819
70.913000,1822
70.913500,1804
70.914000,1803
70.914500,1820
70.915000,1806
70.915500,1795
70.916000,1814
70.916500,1805
70.917000,1796
70.917500,1815
70.918000,1819
70.918500,1800
70.919000,1804
70.919500,1819
70.920000,1812
70.920500,1804
70.921000,1812
70.921500,1791
70.922000,1799
70.922500,1818
70.923000,1819
70.923500,1800
70.924000,1808
70.924500,1826
70.925000,1810
70.925500,1800
70.926000,1819
70.926500,1817
70.927000,1801
70.927500,1824
70.928000,1819
70.928500,1806
70.929000,1830
70.929500,1821
70.930000,1806
70.930500,1805
70.931000,1818
70.931500,1823
70.932000,1797
70.932500,1813
70.933000,1822
70.933500,1805
70.934000,1802
70.934500,1820
70.935000,1805
70.935500,1800
70.936000,1816
70.936500,1815
70.937000,1800
70.937500,1813
70.938000,1812
70.938500,1802
70.939000,1791
70.939500,1816
70.940000,1805
70.940500,1811
70.941000,1819
70.941500,1826
70.942000,1808
70.942500,1802
70.943000,1826
70.943500,1810
70.944000,1804
70.944500,1822
70.945000,1802
70.945500,1800
70.946000,1819
70.946500,1820
70.947000,1809
70.947500,1794
70.948000,1819
70.948500,1804
70.949000,1801
70.949500,1817
70.950000,1820
70.950500,1805
70.951000,1809
70.951500,1824
70.952000,1806
70.952500,1797
70.953000,1824
70.953500,1818
70.954000,1797
70.954500,1819
70.955000,1827
70.955500,1798
70.956000,1815
70.956500,1812
70.957000,1791
70.957500,1799
70.958000,1816
70.958500,1791
70.959000,1800
70.959500,1817
70.960000,1816
70.960500,1810
70.961000,1807
70.961500,1824
70.962000,1816
70.962500,1794
70.963000,1815
70.963500,1834
70.964000,1804
70.964500,1823
70.965000,1826
70.965500,1803
70.966000,1800
70.966500,1818
70.967000,1810
70.967500,1801
70.968000,1818
70.968500,1824
70.969000,1796
70.969500,1806
70.970000,1826
70.970500,1808
70.971000,1808
70.971500,1828
70.972000,1809
70.972500,1802
70.973000,1816
70.973500,1826
70.974000,1800
70.974500,1790
70.975000,1822
70.975500,1804
70.976000,1791
70.976500,1810
70.977000,1812
70.977500,1802
70.978000,1804
70.978500,1816
70.979000,1801
70.979500,1795
70.980000,1815
70.980500,1793
70.981000,1795
70.981500,1815
70.982000,1828
70.982500,1802
70.983000,1815
70.983500,1822
70.984000,1804
70.984500,1796
70.985000,1828
70.985500,1812
70.986000,1800
70.986500,1810
70.987000,1819
70.987500,1808
70.988000,1820
70.988500,1820
70.989000,1811
70.989500,1795
70.990000,1816
70.990500,1825
70.991000,1800
70.991500,1821
70.992000,1825
70.992500,1805
70.993000,1794
70.993500,1827
70.994000,1800
70.994500,1797
70.995000,1818
70.995500,1821
70.996000,1804
70.996500,1810
70.997000,1813
70.997500,1806
70.998000,1798
70.998500,1820
70.999000,1802
70.999500,1796
71.000000,1826
71.000500,1827
71.001000,1798
71.001500,1833
71.002000,1822
71.002500,1802
71.003000,1811
71.003500,1815
71.004000,1812
71.004500,1799
71.005000,1822
71.005500,1826
71.006000,1803
71.006500,1805
71.007000,1815
71.007500,1809
71.008000,1796
71.008500,1814
71.009000,1828
71.009500,1803
71.010000,1820
71.010500,1824
71.011000,1808
71.011500,1792
71.012000,1820
71.012500,1810
71.013000,1798
71.013500,1817
71.014000,1828
71.014500,1798
71.015000,1815
71.015500,1817
71.016000,1802
71.016500,1793
71.017000,1809
71.017500,1794
71.018000,1798
71.018500,1815
71.019000,1815
71.019500,1804
71.020000,1784
71.020500,1817
71.021000,1809
71.021500,1806
71.022000,1831
71.022500,1827
71.023000,1803
71.023500,1815
71.024000,1825
71.024500,1806
71.025000,1802
71.025500,1821
71.026000,1810
71.026500,1802
71.027000,1820
71.027500,1822
71.028000,1800
71.028500,1804
71.029000,1819
71.029500,1808
71.030000,1804
71.030500,1823
71.031000,1815
71.031500,1802
71.032000,1813
71.032500,1818
71.033000,1808
71.033500,1787
71.034000,1820
71.034500,1803
71.035000,1803
71.035500,1819
71.036000,1810
71.036500,1796
71.037000,1808
71.037500,1819
71.038000,1800
71.038500,1797
71.039000,1827
71.039500,1800
71.040000,1794
71.040500,1808
71.041000,1833
71.041500,1804
71.042000,1814
71.042500,1822
71.043000,1800
71.043500,1799
71.044000,1815
71.044500,1817
71.045000,1804
71.045500,1819
71.046000,1824
71.046500,1806
71.047000,1820
71.047500,1818
71.048000,1805
71.048500,1797
71.049000,1821
71.049500,1828
71.050000,1801
71.050500,1824
71.051000,1831
71.051500,1804
71.052000,1796
71.052500,1815
71.053000,1811
71.053500,1802
71.054000,1820
71.054500,1822
71.055000,1805
71.055500,1815
71.056000,1818
71.056500,1799
71.057000,1798
71.057500,1808
71.058000,1808
71.058500,1797
71.059000,1814
71.059500,1820
71.060000,1798
71.060500,1821
71.061000,1818
71.061500,1793
71.062000,1800
71.062500,1818
71.063000,1822
71.063500,1800
71.064000,1812
71.064500,1830
71.065000,1806
71.065500,1799
71.066000,1822
71.066500,1809
71.067000,1804
71.067500,1818
71.068000,1827
71.068500,1800
71.069000,1814
71.069500,1819
71.070000,1808
71.070500,1805
71.071000,1820
71.071500,1811
71.072000,1801
71.072500,1819
71.073000,1820
71.073500,1802
71.074000,1820
71.074500,1818
71.075000,1808
71.075500,1799
71.076000,1814
71.076500,1800
71.077000,1800
71.077500,1809
71.078000,1814
71.078500,1808
71.079000,1793
71.079500,1814
71.080000,1808
71.080500,1799
71.081000,1816
71.081500,1821
71.082000,1801
71.082500,1807
71.083000,1828
71.083500,1805
71.084000,1800
71.084500,1819
71.085000,1813
71.085500,1802
71.086000,1819
71.086500,1822
71.087000,1803
71.087500,1813
71.088000,1826
71.088500,1805
71.089000,1803
71.089500,1815
71.090000,1804
71.090500,1800
71.091000,1818
71.091500,1827
71.092000,1806
71.092500,1804
71.093000,1819
71.093500,1802
71.094000,1802
71.094500,1816
71.095000,1809
71.095500,1798
71.096000,1811
71.096500,1814
71.097000,1803
71.097500,1815
71.098000,1807
71.098500,1804
71.099000,1794
71.099500,1812
71.100000,1827
71.100500,1797
71.101000,1818
71.101500,1821
71.102000,1805
71.102500,1801
71.103000,1825
71.103500,1816
71.104000,1797
71.104500,1821
71.105000,1831
71.105500,1800
71.106000,1817
71.106500,1821
71.107000,1807
71.107500,1797
71.108000,1812
71.108500,1802
71.109000,1802
71.109500,1816
71.110000,1822
71.110500,1805
71.111000,1827
71.111500,1823
71.112000,1808
71.112500,1797
71.113000,1821
71.113500,1792
71.114000,1805
71.114500,1814
71.115000,1830
71.115500,1801
71.116000,1792
71.116500,1814
71.117000,1802
71.117500,1799
71.118000,1808
71.118500,1813
71.119000,1797
71.119500,1814
71.120000,1815
71.120500,1802
71.121000,1788
71.121500,1823
71.122000,1809
71.122500,1806
71.123000,1816
71.123500,1826
71.124000,1798
71.124500,1800
71.125000,1826
71.125500,1810
71.126000,1799
71.126500,1815
71.127000,1815
71.127500,1798
71.128000,1819
71.128500,1826
71.129000,1809
71.129500,1825
71.130000,1820
71.130500,1812
71.131000,1798
71.131500,1819
71.132000,1828
71.132500,1801
71.133000,1814
71.133500,1818
71.134000,1800
71.134500,1794
71.135000,1824
71.135500,1805
71.136000,1798
71.136500,1814
71.137000,1809
71.137500,1804
71.138000,1815
71.138500,1820
71.139000,1796
71.139500,1800
71.140000,1817
71.140500,1811
71.141000,1797
71.141500,1814
71.142000,1818
71.142500,1806
71.143000,1818
71.143500,1822
71.144000,1808
71.144500,1794
71.145000,1829
71.145500,1818
71.146000,1802
71.146500,1814
71.147000,1818
71.147500,1804
71.148000,1815
71.148500,1814
71.149000,1809
71.149500,1796
71.150000,1820
71.150500,1814
71.151000,1802
71.151500,1814
71.152000,1826
71.152500,1801
71.153000,1791
71.153500,1820
71.154000,1807
71.154500,1796
71.155000,1821
71.155500,1817
71.156000,1802
71.156500,1810
71.157000,1815
71.157500,1808
71.158000,1791
71.158500,1816
71.159000,1805
71.159500,1788
71.160000,1814
71.160500,1820
71.161000,1810
71.161500,1825
71.162000,1826
71.162500,1806
71.163000,1798
71.163500,1816
71.164000,1814
71.164500,1796
71.165000,1823
71.165500,1824
71.166000,1802
71.166500,1803
71.167000,1823
71.167500,1810
71.168000,1803
71.168500,1818
71.169000,1823
71.169500,1800
71.170000,1810
71.170500,1820
71.171000,1805
71.171500,1794
71.172000,1812
71.172500,1813
71.173000,1806
71.173500,1821
71.174000,1823
71.174500,1803
71.175000,1821
71.175500,1819
71.176000,1802
71.176500,1794
71.177000,1813
71.177500,1792
71.178000,1800
71.178500,1808
71.179000,1813
71.179500,1801
71.180000,1802
71.180500,1819
71.181000,1808
71.181500,1800
71.182000,1806
71.182500,1823
71.183000,1802
71.183500,1824
71.184000,1822
71.184500,1811
71.185000,1806
71.185500,1825
71.186000,1814
71.186500,1802
71.187000,1818
71.187500,1823
71.188000,1802
71.188500,1822
71.189000,1821
71.189500,1803
71.190000,1797
71.190500,1824
71.191000,1810
71.191500,1797
71.192000,1817
71.192500,1825
71.193000,1808
71.193500,1837
71.194000,1822
71.194500,1801
71.195000,1796
71.195500,1818
71.196000,1823
71.196500,1796
71.197000,1808
71.197500,1810
71.198000,1806
71.198500,1799
71.199000,1814
71.199500,1795
71.200000,1798
71.200500,1831
71.201000,1829
71.201500,1818
71.202000,1821
71.202500,1823
71.203000,1811
71.203500,1809
71.204000,1821
71.204500,1809
71.205000,1802
71.205500,1821
71.206000,1826
71.206500,1809
71.207000,1814
71.207500,1817
71.208000,1805
71.208500,1794
71.209000,1822
71.209500,1791
71.210000,1797
71.210500,1818
71.211000,1829
71.211500,1802
71.212000,1804
71.212500,1825
71.213000,1813
71.213500,1806
71.214000,1815
71.214500,1824
71.215000,1800
71.215500,1818
71.216000,1817
71.216500,1802
71.217000,1784
71.217500,1813
71.218000,1803
71.218500,1799
71.219000,1813
71.219500,1828
71.220000,1798
71.220500,1807
71.221000,1818
71.221500,1800
71.222000,1788
71.222500,1828
71.223000,1811
71.223500,1800
71.224000,1820
71.224500,1824
71.225000,1805
71.225500,1806
71.226000,1821
71.226500,1806
71.227000,1799
71.227500,1810
71.228000,1814
71.228500,1798
71.229000,1818
71.229500,1818
71.230000,1810
71.230500,1809
71.231000,1822
71.231500,1806
71.232000,1799
71.232500,1818
71.233000,1826
71.233500,1802
71.234000,1815
71.234500,1817
71.235000,1812
71.235500,1797
71.236000,1816
71.236500,1802
71.237000,1795
71.237500,1806
71.238000,1812
71.238500,1799
71.239000,1808
71.239500,1816
71.240000,1804
71.240500,1783
71.241000,1818
71.241500,1806
71.242000,1801
71.242500,1815
71.243000,1845
71.243500,1800
71.244000,1836
71.244500,1821
71.245000,1808
71.245500,1798
71.246000,1818
71.246500,1797
71.247000,1797
71.247500,1811
71.248000,1826
71.248500,1804
71.249000,1801
71.249500,1814
71.250000,1813
71.250500,1801
71.251000,1819
71.251500,1817
71.252000,1800
71.252500,1815
71.253000,1820
71.253500,1808
71.254000,1802
71.254500,1820
71.255000,1811
71.255500,1799
71.256000,1813
71.256500,1817
71.257000,1792
71.257500,1781
71.258000,1815
71.258500,1804
71.259000,1799
71.259500,1820
71.260000,1803
71.260500,1799
71.261000,1815
71.261500,1822
71.262000,1797
71.262500,1814
71.263000,1820
71.263500,1814
71.264000,1795
71.264500,1816
71.265000,1810
71.265500,1801
71.266000,1815
71.266500,1821
71.267000,1804
71.267500,1800
71.268000,1820
71.268500,1807
71.269000,1800
71.269500,1817
71.270000,1814
71.270500,1803
71.271000,1817
71.271500,1821
71.272000,1802
71.272500,1805
71.273000,1822
71.273500,1810
71.274000,1802
71.274500,1810
71.275000,1820
71.275500,1799
71.276000,1814
71.276500,1814
71.277000,1803
71.277500,1799
71.278000,1804
71.278500,1795
71.279000,1795
71.279500,1808
71.280000,1824
71.280500,1810
71.281000,1828
71.281500,1815
71.282000,1810
71.282500,1805
71.283000,1834
71.283500,1800
71.284000,1796
71.284500,1823
71.285000,1830
71.285500,1806
71.286000,1799
71.286500,1820
71.287000,1810
71.287500,1797
71.288000,1816
71.288500,1822
71.289000,1800
71.289500,1816
71.290000,1821
71.290500,1810
71.291000,1795
71.291500,1818
71.292000,1780
71.292500,1799
71.293000,1823
71.293500,1820
71.294000,1804
71.294500,1810
71.295000,1820
71.295500,1806
71.296000,1798
71.296500,1811
71.297000,1804
71.297500,1801
71.298000,1815
71.298500,1816
71.299000,1801
71.299500,1798
71.300000,1823
71.300500,1809
71.301000,1800
71.301500,1815
71.302000,1823
71.302500,1818
71.303000,1812
71.303500,1817
71.304000,1809
71.304500,1791
71.305000,1828
71.305500,1811
71.306000,1803
71.306500,1820
71.307000,1822
71.307500,1804
71.308000,1827
71.308500,1818
71.309000,1808
71.309500,1795
71.310000,1822
71.310500,1821
71.311000,1806
71.311500,1817
71.312000,1817
71.312500,1804
71.313000,1802
71.313500,1823
71.314000,1808
71.314500,1796
71.315000,1815
71.315500,1827
71.316000,1802
71.316500,1803
71.317000,1813
71.317500,1806
71.318000,1798
71.318500,1815
71.319000,1809
71.319500,1788
71.320000,1815
71.320500,1817
71.321000,1794
71.321500,1810
71.322000,1817
71.322500,1804
71.323000,1806
71.323500,1822
71.324000,1824
71.324500,1814
71.325000,1821
71.325500,1827
71.326000,1808
71.326500,1799
71.327000,1810
71.327500,1810
71.328000,1790
71.328500,1813
71.329000,1820
71.329500,1802
71.330000,1817
71.330500,1818
71.331000,1804
71.331500,1796
71.332000,1822
71.332500,1777
71.333000,1804
71.333500,1817
71.334000,1821
71.334500,1802
71.335000,1792
71.335500,1821
71.336000,1808
71.336500,1800
71.337000,1815
71.337500,1816
71.338000,1802
71.338500,1807
71.339000,1814
71.339500,1797
71.340000,1797
71.340500,1821
71.341000,1792
71.341500,1799
71.342000,1808
71.342500,1819
71.343000,1803
71.343500,1801
71.344000,1826
71.344500,1807
71.345000,1803
71.345500,1821
71.346000,1827
71.346500,1805
71.347000,1816
71.347500,1822
71.348000,1808
71.348500,1778
71.349000,1819
71.349500,1806
71.350000,1804
71.350500,1819
71.351000,1825
71.351500,1803
71.352000,1808
71.352500,1826
71.353000,1795
71.353500,1799
71.354000,1815
71.354500,1822
71.355000,1814
71.355500,1821
71.356000,1821
71.356500,1799
71.357000,1794
71.357500,1810
71.358000,1820
71.358500,1797
71.359000,1812
71.359500,1817
71.360000,1812
71.360500,1835
71.361000,1812
71.361500,1802
71.362000,1802
71.362500,1817
71.363000,1817
71.363500,1795
71.364000,1819
71.364500,1820
71.365000,1803
71.365500,1796
71.366000,1821
71.366500,1807
71.367000,1798
71.367500,1813
71.368000,1828
71.368500,1806
71.369000,1795
71.369500,1819
71.370000,1810
71.370500,1808
71.371000,1818
71.371500,1819
71.372000,1806
71.372500,1821
71.373000,1826
71.373500,1805
71.374000,1828
71.374500,1817
71.375000,1818
71.375500,1797
71.376000,1815
71.376500,1806
71.377000,1795
71.377500,1814
71.378000,1821
71.378500,1794
71.379000,1788
71.379500,1821
71.380000,1804
71.380500,1801
71.381000,1819
71.381500,1832
71.382000,1798
71.382500,1818
71.383000,1828
71.383500,1817
71.384000,1800
71.384500,1820
71.385000,1828
71.385500,1802
71.386000,1816
71.386500,1820
71.387000,1812
71.387500,1825
71.388000,1815
71.388500,1804
71.389000,1800
71.389500,1821
71.390000,1830
71.390500,1799
71.391000,1815
71.391500,1820
71.392000,1804
71.392500,1794
71.393000,1815
71.393500,1808
71.394000,1797
71.394500,1815
71.395000,1821
71.395500,1796
71.396000,1810
71.396500,1810
71.397000,1802
71.397500,1796
71.398000,1820
71.398500,1802
71.399000,1793
71.399500,1819
71.400000,1823
71.400500,1797
71.401000,1805
71.401500,1826
71.402000,1808
71.402500,1805
71.403000,1821
71.403500,1824
71.404000,1798
71.404500,1812
71.405000,1829
71.405500,1805
71.406000,1799
71.406500,1816
71.407000,1810
71.407500,1804
71.408000,1820
71.408500,1816
71.409000,1796
71.409500,1806
71.410000,1828
71.410500,1807
71.411000,1802
71.411500,1818
71.412000,1809
71.412500,1801
71.413000,1818
71.413500,1819
71.414000,1805
71.414500,1790
71.415000,1828
71.415500,1808
71.416000,1799
71.416500,1811
71.417000,1819
71.417500,1805
71.418000,1813
71.418500,1817
71.419000,1802
71.419500,1797
71.420000,1804
71.420500,1814
71.421000,1805
71.421500,1815
71.422000,1818
71.422500,1809
71.423000,1809
71.423500,1829
71.424000,1810
71.424500,1799
71.425000,1827
71.425500,1804
71.426000,1802
71.426500,1817
71.427000,1824
71.427500,1815
71.428000,1801
71.428500,1820
71.429000,1804
71.429500,1791
71.430000,1825
71.430500,1825
71.431000,1794
71.431500,1813
71.432000,1820
71.432500,1802
71.433000,1800
71.433500,1820
71.434000,1807
71.434500,1794
71.435000,1822
71.435500,1828
71.436000,1798
71.436500,1809
71.437000,1814
71.437500,1806
71.438000,1798
71.438500,1811
71.439000,1812
71.439500,1799
71.440000,1817
71.440500,1827
71.441000,1807
71.441500,1823
71.442000,1815
71.442500,1802
71.443000,1792
71.443500,1823
71.444000,1822
71.444500,1800
71.445000,1827
71.445500,1825
71.446000,1806
71.446500,1802
71.447000,1819
71.447500,1812
71.448000,1805
71.448500,1813
71.449000,1823
71.449500,1805
71.450000,1808
71.450500,1821
71.451000,1807
71.451500,1797
71.452000,1819
71.452500,1806
71.453000,1801
71.453500,1821
71.454000,1822
71.454500,1807
71.455000,1823
71.455500,1822
71.456000,1800
71.456500,1794
71.457000,1810
71.457500,1813
71.458000,1798
71.458500,1813
71.459000,1822
71.459500,1801
71.460000,1825
71.460500,1814
71.461000,1807
71.461500,1800
71.462000,1815
71.462500,1824
71.463000,1801
71.463500,1821
71.464000,1828
71.464500,1812
71.465000,1797
71.465500,1826
71.466000,1812
71.466500,1792
71.467000,1820
71.467500,1827
71.468000,1806
71.468500,1809
71.469000,1821
71.469500,1803
71.470000,1801
71.470500,1816
71.471000,1834
71.471500,1796
71.472000,1817
71.472500,1826
71.473000,1812
71.473500,1820
71.474000,1822
71.474500,1806
71.475000,1809
71.475500,1821
71.476000,1802
71.476500,1796
71.477000,1810
71.477500,1828
71.478000,1803
71.478500,1788
71.479000,1831
71.479500,1802
71.480000,1793
71.480500,1809
71.481000,1826
71.481500,1806
71.482000,1825
71.482500,1824
71.483000,1809
71.483500,1806
71.484000,1824
71.484500,1806
71.485000,1804
71.485500,1822
71.486000,1818
71.486500,1801
71.487000,1828
71.487500,1818
71.488000,1799
71.488500,1800
71.489000,1822
71.489500,1817
71.490000,1806
71.490500,1820
71.491000,1828
71.491500,1796
71.492000,1817
71.492500,1820
71.493000,1805
71.493500,1795
71.494000,1815
71.494500,1826
71.495000,1803
71.495500,1816
71.496000,1820
71.496500,1805
71.497000,1780
71.497500,1809
71.498000,1802
71.498500,1794
71.499000,1810
71.499500,1817
71.500000,1801
71.500500,1814
71.501000,1814
71.501500,1797
71.502000,1798
71.502500,1814
71.503000,1813
71.503500,1802
71.504000,1812
71.504500,1831
71.505000,1808
71.505500,1799
71.506000,1822
71.506500,1809
71.507000,1799
71.507500,1812
71.508000,1813
71.508500,1805
71.509000,1817
71.509500,1824
71.510000,1807
71.510500,1826
71.511000,1824
71.511500,1808
71.512000,1798
71.512500,1823
71.513000,1820
71.513500,1796
71.514000,1811
71.514500,1817
71.515000,1806
71.515500,1797
71.516000,1817
71.516500,1806
71.517000,1795
71.517500,1805
71.518000,1822
71.518500,1795
71.519000,1810
71.519500,1816
71.520000,1807
71.520500,1803
71.521000,1815
71.521500,1812
71.522000,1806
71.522500,1820
71.523000,1824
71.523500,1796
71.524000,1825
71.524500,1828
71.525000,1809
71.525500,1802
71.526000,1820
71.526500,1823
71.527000,1805
71.527500,1817
71.528000,1823
71.528500,1804
71.529000,1800
71.529500,1821
71.530000,1799
71.530500,1797
71.531000,1827
71.531500,1830
71.532000,1809
71.532500,1816
71.533000,1822
71.533500,1796
71.534000,1797
71.534500,1818
71.535000,1813
71.535500,1798
71.536000,1814
71.536500,1816
71.537000,1801
71.537500,1803
71.538000,1816
71.538500,1804
71.539000,1799
71.539500,1812
71.540000,1805
71.540500,1797
71.541000,1818
71.541500,1823
71.542000,1803
71.542500,1790
71.543000,1822
71.543500,1934
71.544000,1797
71.544500,1808
71.545000,1808
71.545500,1788
71.546000,1792
71.546500,1804
71.547000,1797
71.547500,1793
71.548000,1812
71.548500,1798
71.549000,1789
71.549500,1811
71.550000,1810
71.550500,1800
71.551000,1807
71.551500,1818
71.552000,1800
71.552500,1795
71.553000,1816
71.553500,1814
71.554000,1794
71.554500,1812
71.555000,1819
71.555500,1801
71.556000,1821
71.556500,1809
71.557000,1798
71.557500,1791
71.558000,1813
71.558500,1808
71.559000,1802
71.559500,1810
71.560000,1817
71.560500,1805
71.561000,1793
71.561500,1813
71.562000,1808
71.562500,1799
71.563000,1811
71.563500,1812
71.564000,1801
71.564500,1808
71.565000,1828
71.565500,1807
71.566000,1796
71.566500,1820
71.567000,1803
71.567500,1802
71.568000,1814
71.568500,1824
71.569000,1796
71.569500,1829
71.570000,1824
71.570500,1806
71.571000,1794
71.571500,1823
71.572000,1822
71.572500,1802
71.573000,1814
71.573500,1825
71.574000,1797
71.574500,1800
71.575000,1822
71.575500,1804
71.576000,1795
71.576500,1808
71.577000,1818
71.577500,1798
71.578000,1807
71.578500,1813
71.579000,1803
71.579500,1796
71.580000,1808
71.580500,1814
71.581000,1800
71.581500,1813
71.582000,1827
71.582500,1802
71.583000,1822
71.583500,1827
71.584000,1793
71.584500,1797
71.585000,1829
71.585500,1799
71.586000,1802
71.586500,1816
71.587000,1816
71.587500,1805
71.588000,1799
71.588500,1816
71.589000,1828
71.589500,1800
71.590000,1815
71.590500,1826
71.591000,1810
71.591500,1818
71.592000,1827
71.592500,1806
71.593000,1793
71.593500,1817
71.594000,1806
71.594500,1801
71.595000,1812
71.595500,1825
71.596000,1804
71.596500,1808
71.597000,1815
71.597500,1802
71.598000,1792
71.598500,1811
71.599000,1802
71.599500,1795
71.600000,1819
71.600500,1819
71.601000,1797
71.601500,1817
71.602000,1818
71.602500,1804
71.603000,1803
71.603500,1826
71.604000,1797
71.604500,1799
71.605000,1817
71.605500,1828
71.606000,1802
71.606500,1799
71.607000,1812
71.607500,1803
71.608000,1798
71.608500,1810
71.609000,1829
71.609500,1799
71.610000,1820
71.610500,1818
71.611000,1808
71.611500,1802
71.612000,1826
71.612500,1808
71.613000,1798
71.613500,1812
71.614000,1826
71.614500,1798
71.615000,1814
71.615500,1821
71.616000,1806
71.616500,1790
71.617000,1809
71.617500,1819
71.618000,1797
71.618500,1807
71.619000,1815
71.619500,1802
71.620000,1801
71.620500,1818
71.621000,1809
71.621500,1790
71.622000,1814
71.622500,1818
71.623000,1796
71.623500,1815
71.624000,1820
71.624500,1808
71.625000,1803
71.625500,1825
71.626000,1809
71.626500,1794
71.627000,1814
71.627500,1820
71.628000,1796
71.628500,1817
71.629000,1823
71.629500,1804
71.630000,1801
71.630500,1815
71.631000,1808
71.631500,1799
71.632000,1821
71.632500,1822
71.633000,1805
71.633500,1850
71.634000,1821
71.634500,1811
71.635000,1812
71.635500,1822
71.636000,1816
71.636500,1799
71.637000,1811
71.637500,1817
71.638000,1804
71.638500,1799
71.639000,1811
71.639500,1804
71.640000,1801
71.640500,1808
71.641000,1827
71.641500,1801
71.642000,1824
71.642500,1821
71.643000,1800
71.643500,1796
71.644000,1817
71.644500,1813
71.645000,1798
71.645500,1818
71.646000,1827
71.646500,1806
71.647000,1826
71.647500,1818
71.648000,1801
71.648500,1799
71.649000,1826
71.649500,1822
71.650000,1799
71.650500,1819
71.651000,1825
71.651500,1804
71.652000,1795
71.652500,1818
71.653000,1807
71.653500,1799
71.654000,1813
71.654500,1820
71.655000,1803
71.655500,1814
71.656000,1818
71.656500,1794
71.657000,1788
71.657500,1810
71.658000,1811
71.658500,1796
71.659000,1818
71.659500,1821
71.660000,1802
71.660500,1831
71.661000,1825
71.661500,1792
71.662000,1804
71.662500,1829
71.663000,1808
71.663500,1800
71.664000,1820
71.664500,1831
71.665000,1810
71.665500,1796
71.666000,1821
71.666500,1808
71.667000,1805
71.667500,1816
71.668000,1824
71.668500,1804
71.669000,1821
71.669500,1819
71.670000,1809
71.670500,1796
71.671000,1820
71.671500,1815
71.672000,1802
71.672500,1823
71.673000,1820
71.673500,1804
71.674000,1804
71.674500,1821
71.675000,1798
71.675500,1798
71.676000,1819
71.676500,1810
71.677000,1793
71.677500,1808
71.678000,1819
71.678500,1805
71.679000,1822
71.679500,1815
71.680000,1799
71.680500,1805
71.681000,1820
71.681500,1829
71.682000,1796
71.682500,1818
71.683000,1824
71.683500,1808
71.684000,1805
71.684500,1830
71.685000,1810
71.685500,1800
71.686000,1821
71.686500,1824
71.687000,1803
71.687500,1814
71.688000,1816
71.688500,1808
71.689000,1794
71.689500,1819
71.690000,1815
71.690500,1800
71.691000,1823
71.691500,1831
71.692000,1814
71.692500,1808
71.693000,1822
71.693500,1804
71.694000,1798
71.694500,1817
71.695000,1811
71.695500,1796
71.696000,1813
71.696500,1813
71.697000,1794
71.697500,1801
71.698000,1815
71.698500,1802
71.699000,1798
71.699500,1816
71.700000,1823
71.700500,1799
71.701000,1822
71.701500,1816
71.702000,1803
71.702500,1767
71.703000,1826
71.703500,1811
71.704000,1803
71.704500,1816
71.705000,1827
71.705500,1806
71.706000,1816
71.706500,1823
71.707000,1804
71.707500,1799
71.708000,1816
71.708500,1805
71.709000,1799
71.709500,1823
71.710000,1822
71.710500,1799
71.711000,1808
71.711500,1821
71.712000,1804
71.712500,1794
71.713000,1823
71.713500,1788
71.714000,1801
71.714500,1820
71.715000,1824
71.715500,1796
71.716000,1790
71.716500,1816
71.717000,1792
71.717500,1792
71.718000,1810
71.718500,1811
71.719000,1794
71.719500,1811
71.720000,1813
71.720500,1804
71.721000,1798
71.721500,1812
71.722000,1810
71.722500,1804
71.723000,1832
71.723500,1832
71.724000,1794
71.724500,1812
71.725000,1826
71.725500,1810
71.726000,1802
71.726500,1821
71.727000,1815
71.727500,1796
71.728000,1813
71.728500,1820
71.729000,1800
71.729500,1821
71.730000,1818
71.730500,1806
71.731000,1802
71.731500,1823
71.732000,1804
71.732500,1799
71.733000,1819
71.733500,1820
71.734000,1801
71.734500,1807
71.735000,1826
71.735500,1807
71.736000,1800
71.736500,1814
71.737000,1822
71.737500,1793
71.738000,1788
71.738500,1816
71.739000,1796
71.739500,1792
71.740000,1818
71.740500,1807
71.741000,1800
71.741500,1816
71.742000,1824
71.742500,1800
71.743000,1814
71.743500,1822
71.744000,1804
71.744500,1793
71.745000,1822
71.745500,1811
71.746000,1801
71.746500,1817
71.747000,1815
71.747500,1814
71.748000,1816
71.748500,1821
71.749000,1811
71.749500,1793
71.750000,1815
71.750500,1814
71.751000,1800
71.751500,1817
71.752000,1825
71.752500,1806
71.753000,1825
71.753500,1820
71.754000,1804
71.754500,1803
71.755000,1824
71.755500,1817
71.756000,1795
71.756500,1809
71.757000,1819
71.757500,1795
71.758000,1797
71.758500,1818
71.759000,1809
71.759500,1798
71.760000,1811
71.760500,1823
71.761000,1803
71.761500,1814
71.762000,1821
71.762500,1801
71.763000,1804
71.763500,1821
71.764000,1805
71.764500,1804
71.765000,1826
71.765500,1831
71.766000,1804
71.766500,1807
71.767000,1817
71.767500,1809
71.768000,1795
71.768500,1824
71.769000,1818
71.769500,1795
71.770000,1817
71.770500,1825
71.771000,1810
71.771500,1823
71.772000,1819
71.772500,1807
71.773000,1796
71.773500,1815
71.774000,1820
71.774500,1799
71.775000,1820
71.775500,1823
71.776000,1802
71.776500,1792
71.777000,1811
71.777500,1801
71.778000,1790
71.778500,1810
71.779000,1812
71.779500,1794
71.780000,1816
71.780500,1818
71.781000,1807
71.781500,1790
71.782000,1827
71.782500,1803
71.783000,1777
71.783500,1823
71.784000,1833
71.784500,1808
71.785000,1824
71.785500,1830
71.786000,1807
71.786500,1795
71.787000,1814
71.787500,1806
71.788000,1799
71.788500,1819
71.789000,1828
71.789500,1798
71.790000,1814
71.790500,1825
71.791000,1814
71.791500,1797
71.792000,1815
71.792500,1802
71.793000,1796
71.793500,1817
71.794000,1819
71.794500,1805
71.795000,1808
71.795500,1822
71.796000,1804
71.796500,1795
71.797000,1811
71.797500,1799
71.798000,1800
71.798500,1808
71.799000,1815
71.799500,1800
71.800000,1788
71.800500,1817
71.801000,1805
71.801500,1797
71.802000,1819
71.802500,1818
71.803000,1798
71.803500,1814
71.804000,1823
71.804500,1804
71.805000,1797
71.805500,1826
71.806000,1808
71.806500,1797
71.807000,1816
71.807500,1816
71.808000,1804
71.808500,1818
71.809000,1818
71.809500,1799
71.810000,1803
71.810500,1821
71.811000,1809
71.811500,1802
71.812000,1808
71.812500,1823
71.813000,1802
71.813500,1823
71.814000,1822
71.814500,1803
71.815000,1792
71.815500,1822
71.816000,1804
71.816500,1794
71.817000,1811
71.817500,1820
71.818000,1800
71.818500,1790
71.819000,1816
71.819500,1803
71.820000,1796
71.820500,1822
71.821000,1824
71.821500,1807
71.822000,1814
71.822500,1820
71.823000,1800
71.823500,1799
71.824000,1819
71.824500,1817
71.825000,1793
71.825500,1820
71.826000,1826
71.826500,1802
71.827000,1812
71.827500,1817
71.828000,1797
71.828500,1796
71.829000,1815
71.829500,1809
71.830000,1801
71.830500,1815
71.831000,1821
71.831500,1800
71.832000,1823
71.832500,1822
71.833000,1783
71.833500,1801
71.834000,1828
71.834500,1800
71.835000,1799
71.835500,1817
71.836000,1824
71.836500,1803
71.837000,1795
71.837500,1808
71.838000,1799
71.838500,1798
71.839000,1812
71.839500,1822
71.840000,1801
71.840500,1814
71.841000,1825
71.841500,1806
71.842000,1800
71.842500,1829
71.843000,1805
71.843500,1804
71.844000,1828
71.844500,1831
71.845000,1816
71.845500,1811
71.846000,1825
71.846500,1806
71.847000,1798
71.847500,1827
71.848000,1814
71.848500,1802
71.849000,1819
71.849500,1821
71.850000,1808
71.850500,1803
71.851000,1822
71.851500,1810
71.852000,1802
71.852500,1817
71.853000,1832
71.853500,1811
71.854000,1812
71.854500,1818
71.855000,1806
71.855500,1801
71.856000,1817
71.856500,1808
71.857000,1793
71.857500,1808
71.858000,1813
71.858500,1795
71.859000,1824
71.859500,1818
71.860000,1810
71.860500,1791
71.861000,1826
71.861500,1828
71.862000,1806
71.862500,1816
71.863000,1821
71.863500,1798
71.864000,1799
71.864500,1935
71.865000,1823
71.865500,1788
71.866000,1800
71.866500,1805
71.867000,1787
71.867500,1790
71.868000,1805
71.868500,1794
71.869000,1790
71.869500,1810
71.870000,1779
71.870500,1796
71.871000,1804
71.871500,1810
71.872000,1793
71.872500,1790
71.873000,1810
71.873500,1798
71.874000,1789
71.874500,1813
71.875000,1822
71.875500,1797
71.876000,1806
71.876500,1811
71.877000,1793
71.877500,1788
71.878000,1804
71.878500,1803
71.879000,1793
71.879500,1812
71.880000,1819
71.880500,1794
71.881000,1813
71.881500,1811
71.882000,1806
71.882500,1806
71.883000,1810
71.883500,1814
71.884000,1798
71.884500,1816
71.885000,1831
71.885500,1805
71.886000,1804
71.886500,1820
71.887000,1806
71.887500,1801
71.888000,1820
71.888500,1830
71.889000,1795
71.889500,1815
71.890000,1826
71.890500,1803
71.891000,1798
71.891500,1815
71.892000,1809
71.892500,1792
71.893000,1813
71.893500,1819
71.894000,1801
71.894500,1821
71.895000,1828
71.895500,1809
71.896000,1796
71.896500,1810
71.897000,1803
71.897500,1800
71.898000,1812
71.898500,1822
71.899000,1807
71.899500,1801
71.900000,1818
71.900500,1811
71.901000,1795
71.901500,1810
71.902000,1823
71.902500,1802
71.903000,1819
71.903500,1835
71.904000,1809
71.904500,1798
71.905000,1827
71.905500,1814
71.906000,1801
71.906500,1818
71.907000,1819
71.907500,1805
71.908000,1827
71.908500,1817
71.909000,1807
71.909500,1804
71.910000,1820
71.910500,1799
71.911000,1804
71.911500,1817
71.912000,1822
71.912500,1807
71.913000,1789
71.913500,1816
71.914000,1808
71.914500,1802
71.915000,1820
71.915500,1821
71.916000,1806
71.916500,1806
71.917000,1809
71.917500,1803
71.918000,1794
71.918500,1808
71.919000,1804
71.919500,1797
71.920000,1817
71.920500,1824
71.921000,1799
71.921500,1818
71.922000,1825
71.922500,1799
71.923000,1801
71.923500,1824
71.924000,1813
71.924500,1799
71.925000,1815
71.925500,1828
71.926000,1809
71.926500,1814
71.927000,1819
71.927500,1800
71.928000,1799
71.928500,1818
71.929000,1826
71.929500,1800
71.930000,1818
71.930500,1820
71.931000,1806
71.931500,1801
71.932000,1817
71.932500,1811
71.933000,1793
71.933500,1813
71.934000,1827
71.934500,1816
71.935000,1822
71.935500,1824
71.936000,1806
71.936500,1797
71.937000,1809
71.937500,1798
71.938000,1796
71.938500,1814
71.939000,1812
71.939500,1804
71.940000,1829
71.940500,1816
71.941000,1804
71.941500,1805
71.942000,1815
71.942500,1822
71.943000,1798
71.943500,1817
71.944000,1823
71.944500,1810
71.945000,1802
71.945500,1829
71.946000,1811
71.946500,1803
71.947000,1817
71.947500,1827
71.948000,1803
71.948500,1818
71.949000,1818
71.949500,1808
71.950000,1808
71.950500,1821
71.951000,1811
71.951500,1802
71.952000,1814
71.952500,1824
71.953000,1803
71.953500,1811
71.954000,1824
71.954500,1806
71.955000,1798
71.955500,1822
71.956000,1814
71.956500,1794
71.957000,1802
71.957500,1822
71.958000,1796
71.958500,1814
71.959000,1813
71.959500,1802
71.960000,1796
71.960500,1816
71.961000,1827
71.961500,1795
71.962000,1821
71.962500,1812
71.963000,1796
71.963500,1796
71.964000,1821
71.964500,1804
71.965000,1802
71.965500,1823
71.966000,1832
71.966500,1800
71.967000,1816
71.967500,1821
71.968000,1799
71.968500,1803
71.969000,1821
71.969500,1804
71.970000,1803
71.970500,1823
71.971000,1823
71.971500,1812
71.972000,1808
71.972500,1817
71.973000,1808
71.973500,1795
71.974000,1814
71.974500,1810
71.975000,1800
71.975500,1820
71.976000,1821
71.976500,1800
71.977000,1796
71.977500,1810
71.978000,1807
71.978500,1795
71.979000,1809
71.979500,1818
71.980000,1799
71.980500,1810
71.981000,1825
71.981500,1796
71.982000,1797
71.982500,1816
71.983000,1812
71.983500,1806
71.984000,1826
71.984500,1833
71.985000,1801
71.985500,1819
71.986000,1826
71.986500,1806
71.987000,1800
71.987500,1816
71.988000,1799
71.988500,1798
71.989000,1808
71.989500,1819
71.990000,1796
71.990500,1807
71.991000,1821
71.991500,1810
71.992000,1801
71.992500,1809
71.993000,1822
71.993500,1803
71.994000,1817
71.994500,1826
71.995000,1805
71.995500,1796
71.996000,1820
71.996500,1805
71.997000,1798
71.997500,1806
71.998000,1819
71.998500,1801
71.999000,1807
71.999500,1818
72.000000,1800
72.000500,1796
72.001000,1818
72.001500,1808
72.002000,1798
72.002500,1810
72.003000,1831
72.003500,1804
72.004000,1825
72.004500,1820
72.005000,1815
72.005500,1803
72.006000,1821
72.006500,1821
72.007000,1800
72.007500,1814
72.008000,1820
72.008500,1810
72.009000,1800
72.009500,1819
72.010000,1811
72.010500,1795
72.011000,1815
72.011500,1818
72.012000,1814
72.012500,1814
72.013000,1822
72.013500,1806
72.014000,1800
72.014500,1822
72.015000,1815
72.015500,1802
72.016000,1817
72.016500,1818
72.017000,1802
72.017500,1805
72.018000,1814
72.018500,1800
72.019000,1796
72.019500,1815
72.020000,1804
72.020500,1801
72.021000,1810
72.021500,1825
72.022000,1794
72.022500,1810
72.023000,1820
72.023500,1804
72.024000,1797
72.024500,1823
72.025000,1790
72.025500,1806
72.026000,1821
72.026500,1823
72.027000,1802
72.027500,1802
72.028000,1819
72.028500,1814
72.029000,1803
72.029500,1818
72.030000,1829
72.030500,1798
72.031000,1844
72.031500,1826
72.032000,1807
72.032500,1795
72.033000,1814
72.033500,1784
72.034000,1798
72.034500,1818
72.035000,1825
72.035500,1807
72.036000,1808
72.036500,1817
72.037000,1804
72.037500,1793
72.038000,1812
72.038500,1787
72.039000,1793
72.039500,1815
72.040000,1825
72.040500,1799
72.041000,1802
72.041500,1821
72.042000,1815
72.042500,1793
72.043000,1813
72.043500,1824
72.044000,1798
72.044500,1810
72.045000,1824
72.045500,1811
72.046000,1799
72.046500,1820
72.047000,1805
72.047500,1798
72.048000,1817
72.048500,1826
72.049000,1801
72.049500,1813
72.050000,1820
72.050500,1804
72.051000,1797
72.051500,1827
72.052000,1820
72.052500,1799
72.053000,1814
72.053500,1820
72.054000,1799
72.054500,1828
72.055000,1840
72.055500,1807
72.056000,1798
72.056500,1816
72.057000,1819
72.057500,1794
72.058000,1816
72.058500,1816
72.059000,1794
72.059500,1803
72.060000,1823
72.060500,1809
72.061000,1800
72.061500,1820
72.062000,1831
72.062500,1800
72.063000,1813
72.063500,1829
72.064000,1810
72.064500,1803
72.065000,1816
72.065500,1809
72.066000,1801
72.066500,1819
72.067000,1822
72.067500,1796
72.068000,1804
72.068500,1819
72.069000,1804
72.069500,1799
72.070000,1818
72.070500,1813
72.071000,1800
72.071500,1817
72.072000,1822
72.072500,1803
72.073000,1794
72.073500,1814
72.074000,1807
72.074500,1803
72.075000,1819
72.075500,1826
72.076000,1798
72.076500,1812
72.077000,1815
72.077500,1798
72.078000,1800
72.078500,1814
72.079000,1806
72.079500,1801
72.080000,1823
72.080500,1827
72.081000,1796
72.081500,1815
72.082000,1818
72.082500,1805
72.083000,1802
72.083500,1832
72.084000,1816
72.084500,1802
72.085000,1822
72.085500,1830
72.086000,1806
72.086500,1828
72.087000,1819
72.087500,1810
72.088000,1799
72.088500,1821
72.089000,1829
72.089500,1798
72.090000,1818
72.090500,1824
72.091000,1808
72.091500,1802
72.092000,1819
72.092500,1804
72.093000,1805
72.093500,1817
72.094000,1832
72.094500,1796
72.095000,1819
72.095500,1823
72.096000,1805
72.096500,1792
72.097000,1808
72.097500,1800
72.098000,1801
72.098500,1810
72.099000,1819
72.099500,1797
72.100000,1817
72.100500,1819
72.101000,1806
72.101500,1806
72.102000,1817
72.102500,1812
72.103000,1804
72.103500,1822
72.104000,1834
72.104500,1806
72.105000,1802
72.105500,1825
72.106000,1810
72.106500,1800
72.107000,1814
72.107500,1827
72.108000,1800
72.108500,1816
72.109000,1822
72.109500,1800
72.110000,1807
72.110500,1820
72.111000,1814
72.111500,1800
72.112000,1814
72.112500,1834
72.113000,1801
72.113500,1815
72.114000,1819
72.114500,1804
72.115000,1805
72.115500,1820
72.116000,1818
72.116500,1797
72.117000,1808
72.117500,1820
72.118000,1797
72.118500,1824
72.119000,1810
72.119500,1803
72.120000,1788
72.120500,1822
72.121000,1812
72.121500,1792
72.122000,1819
72.122500,1819
72.123000,1808
72.123500,1789
72.124000,1822
72.124500,1805
72.125000,1801
72.125500,1829
72.126000,1832
72.126500,1805
72.127000,1810
72.127500,1820
72.128000,1798
72.128500,1796
72.129000,1818
72.129500,1811
72.130000,1803
72.130500,1817
72.131000,1823
72.131500,1810
72.132000,1805
72.132500,1818
72.133000,1802
72.133500,1796
72.134000,1820
72.134500,1813
72.135000,1794
72.135500,1815
72.136000,1823
72.136500,1799
72.137000,1810
72.137500,1810
72.138000,1803
72.138500,1795
72.139000,1807
72.139500,1824
72.140000,1802
72.140500,1823
72.141000,1828
72.141500,1798
72.142000,1790
72.142500,1819
72.143000,1804
72.143500,1800
72.144000,1810
72.144500,1825
72.145000,1803
72.145500,1819
72.146000,1828
72.146500,1806
72.147000,1800
72.147500,1819
72.148000,1812
72.148500,1795
72.149000,1815
72.149500,1809
72.150000,1809
72.150500,1815
72.151000,1818
72.151500,1808
72.152000,1801
72.152500,1826
72.153000,1810
72.153500,1794
72.154000,1817
72.154500,1825
72.155000,1801
72.155500,1828
72.156000,1823
72.156500,1803
72.157000,1793
72.157500,1810
72.158000,1811
72.158500,1795
72.159000,1814
72.159500,1816
72.160000,1802
72.160500,1785
72.161000,1823
72.161500,1805
72.162000,1799
72.162500,1815
72.163000,1820
72.163500,1799
72.164000,1830
72.164500,1831
72.165000,1811
72.165500,1801
72.166000,1822
72.166500,1810
72.167000,1798
72.167500,1808
72.168000,1816
72.168500,1798
72.169000,1820
72.169500,1817
72.170000,1808
72.170500,1804
72.171000,1824
72.171500,1799
72.172000,1800
72.172500,1808
72.173000,1823
72.173500,1804
72.174000,1793
72.174500,1818
72.175000,1816
72.175500,1804
72.176000,1820
72.176500,1822
72.177000,1800
72.177500,1810
72.178000,1813
72.178500,1800
72.179000,1788
72.179500,1812
72.180000,1798
72.180500,1795
72.181000,1818
72.181500,1816
72.182000,1795
72.182500,1805
72.183000,1818
72.183500,1810
72.184000,1796
72.184500,1822
72.185000,1808
72.185500,1804
72.186000,1821
72.186500,1821
72.187000,1802
72.187500,1806
72.188000,1814
72.188500,1812
72.189000,1800
72.189500,1817
72.190000,1821
72.190500,1805
72.191000,1815
72.191500,1817
72.192000,1807
72.192500,1797
72.193000,1820
72.193500,1804
72.194000,1798
72.194500,1815
72.195000,1831
72.195500,1811
72.196000,1810
72.196500,1816
72.197000,1802
72.197500,1796
72.198000,1814
72.198500,1830
72.199000,1799
72.199500,1810
72.200000,1819
72.200500,1794
72.201000,1799
72.201500,1819
72.202000,1808
72.202500,1796
72.203000,1823
72.203500,1824
72.204000,1799
72.204500,1812
72.205000,1820
72.205500,1811
72.206000,1799
72.206500,1820
72.207000,1800
72.207500,1803
72.208000,1814
72.208500,1827
72.209000,1796
72.209500,1796
72.210000,1813
72.210500,1809
72.211000,1805
72.211500,1817
72.212000,1831
72.212500,1798
72.213000,1810
72.213500,1819
72.214000,1804
72.214500,1796
72.215000,1818
72.215500,1828
72.216000,1801
72.216500,1814
72.217000,1819
72.217500,1798
72.218000,1821
72.218500,1818
72.219000,1803
72.219500,1790
72.220000,1810
72.220500,1828
72.221000,1798
72.221500,1813
72.222000,1818
72.222500,1798
72.223000,1800
72.223500,1818
72.224000,1822
72.224500,1805
72.225000,1824
72.225500,1826
72.226000,1806
72.226500,1798
72.227000,1819
72.227500,1806
72.228000,1802
72.228500,1818
72.229000,1806
72.229500,1800
72.230000,1807
72.230500,1824
72.231000,1809
72.231500,1788
72.232000,1822
72.232500,1825
72.233000,1797
72.233500,1820
72.234000,1819
72.234500,1802
72.235000,1816
72.235500,1822
72.236000,1802
72.236500,1794
72.237000,1810
72.237500,1810
72.238000,1796
72.238500,1814
72.239000,1811
72.239500,1800
72.240000,1816
72.240500,1817
72.241000,1801
72.241500,1799
72.242000,1823
72.242500,1796
72.243000,1801
72.243500,1816
72.244000,1831
72.244500,1804
72.245000,1804
72.245500,1822
72.246000,1807
72.246500,1798
72.247000,1816
72.247500,1813
72.248000,1803
72.248500,1812
72.249000,1823
72.249500,1800
72.250000,1797
72.250500,1818
72.251000,1816
72.251500,1782
72.252000,1805
72.252500,1819
72.253000,1806
72.253500,1826
72.254000,1819
72.254500,1804
72.255000,1801
72.255500,1818
72.256000,1802
72.256500,1795
72.257000,1808
72.257500,1812
72.258000,1803
72.258500,1796
72.259000,1814
72.259500,1802
72.260000,1801
72.260500,1813
72.261000,1825
72.261500,1801
72.262000,1814
72.262500,1825
72.263000,1803
72.263500,1800
72.264000,1831
72.264500,1814
72.265000,1803
72.265500,1823
72.266000,1831
72.266500,1803
72.267000,1808
72.267500,1813
72.268000,1804
72.268500,1808
72.269000,1813
72.269500,1801
72.270000,1804
72.270500,1819
72.271000,1821
72.271500,1807
72.272000,1802
72.272500,1815
72.273000,1809
72.273500,1796
72.274000,1823
72.274500,1821
72.275000,1803
72.275500,1830
72.276000,1823
72.276500,1802
72.277000,1794
72.277500,1810
72.278000,1800
72.278500,1798
72.279000,1811
72.279500,1819
72.280000,1808
72.280500,1829
72.281000,1818
72.281500,1810
72.282000,1797
72.282500,1823
72.283000,1824
72.283500,1798
72.284000,1819
72.284500,1820
72.285000,1803
72.285500,1797
72.286000,1823
72.286500,1805
72.287000,1798
72.287500,1819
72.288000,1814
72.288500,1797
72.289000,1804
72.289500,1824
72.290000,1804
72.290500,1805
72.291000,1824
72.291500,1800
72.292000,1804
72.292500,1811
72.293000,1821
72.293500,1801
72.294000,1787
72.294500,1814
72.295000,1805
72.295500,1797
72.296000,1816
72.296500,1823
72.297000,1799
72.297500,1810
72.298000,1815
72.298500,1806
72.299000,1799
72.299500,1808
72.300000,1808
72.300500,1797
72.301000,1822
72.301500,1828
72.302000,1797
72.302500,1805
72.303000,1823
72.303500,1802
72.304000,1800
72.304500,1824
72.305000,1808
72.305500,1804
72.306000,1821
72.306500,1826
72.307000,1804
72.307500,1799
72.308000,1817
72.308500,1811
72.309000,1798
72.309500,1818
72.310000,1811
72.310500,1802
72.311000,1816
72.311500,1821
72.312000,1810
72.312500,1798
72.313000,1815
72.313500,1806
72.314000,1795
72.314500,1818
72.315000,1838
72.315500,1796
72.316000,1814
72.316500,1818
72.317000,1802
72.317500,1797
72.318000,1813
72.318500,1802
72.319000,1794
72.319500,1818
72.320000,1818
72.320500,1799
72.321000,1777
72.321500,1818
72.322000,1809
72.322500,1797
72.323000,1823
72.323500,1817
72.324000,1807
72.324500,1824
72.325000,1828
72.325500,1812
72.326000,1836
72.326500,1821
72.327000,1807
72.327500,1797
72.328000,1817
72.328500,1795
72.329000,1803
72.329500,1810
72.330000,1818
72.330500,1804
72.331000,1799
72.331500,1819
72.332000,1803
72.332500,1802
72.333000,1813
72.333500,1824
72.334000,1796
72.334500,1813
72.335000,1824
72.335500,1811
72.336000,1802
72.336500,1816
72.337000,1803
72.337500,1790
72.338000,1817
72.338500,1819
72.339000,1797
72.339500,1807
72.340000,1806
72.340500,1798
72.341000,1799
72.341500,1815
72.342000,1804
72.342500,1798
72.343000,1809
72.343500,1825
72.344000,1801
72.344500,1806
72.345000,1825
72.345500,1804
72.346000,1797
72.346500,1819
72.347000,1810
72.347500,1804
72.348000,1824
72.348500,1822
72.349000,1810
72.349500,1817
72.350000,1820
72.350500,1801
72.351000,1810
72.351500,1820
72.352000,1806
72.352500,1807
72.353000,1819
72.353500,1826
72.354000,1795
72.354500,1813
72.355000,1822
72.355500,1806
72.356000,1799
72.356500,1813
72.357000,1804
72.357500,1799
72.358000,1810
72.358500,1817
72.359000,1801
72.359500,1785
72.360000,1814
72.360500,1803
72.361000,1799
72.361500,1805
72.362000,1822
72.362500,1796
72.363000,1818
72.363500,1844
72.364000,1796
72.364500,1802
72.365000,1823
72.365500,1815
72.366000,1802
72.366500,1816
72.367000,1822
72.367500,1798
72.368000,1814
72.368500,1823
72.369000,1808
72.369500,1801
72.370000,1826
72.370500,1807
72.371000,1804
72.371500,1818
72.372000,1815
72.372500,1805
72.373000,1806
72.373500,1818
72.374000,1807
72.374500,1799
72.375000,1828
72.375500,1820
72.376000,1800
72.376500,1815
72.377000,1816
72.377500,1804
72.378000,1809
72.378500,1816
72.379000,1805
72.379500,1795
72.380000,1812
72.380500,1827
72.381000,1798
72.381500,1812
72.382000,1817
72.382500,1802
72.383000,1802
72.383500,1819
72.384000,1812
72.384500,1804
72.385000,1824
72.385500,1829
72.386000,1804
72.386500,1819
72.387000,1821
72.387500,1812
72.388000,1785
72.388500,1822
72.389000,1806
72.389500,1805
72.390000,1821
72.390500,1828
72.391000,1800
72.391500,1818
72.392000,1819
72.392500,1810
72.393000,1800
72.393500,1815
72.394000,1811
72.394500,1796
72.395000,1813
72.395500,1826
72.396000,1806
72.396500,1814
72.397000,1814
72.397500,1801
72.398000,1798
72.398500,1815
72.399000,1801
72.399500,1795
72.400000,1814
72.400500,1826
72.401000,1795
72.401500,1816
72.402000,1820
72.402500,1801
72.403000,1792
72.403500,1820
72.404000,1797
72.404500,1802
72.405000,1819
72.405500,1822
72.406000,1805
72.406500,1800
72.407000,1820
72.407500,1806
72.408000,1798
72.408500,1820
72.409000,1815
72.409500,1801
72.410000,1820
72.410500,1825
72.411000,1810
72.411500,1793
72.412000,1819
72.412500,1812
72.413000,1802
72.413500,1815
72.414000,1816
72.414500,1805
72.415000,1812
72.415500,1820
72.416000,1805
72.416500,1796
72.417000,1815
72.417500,1806
72.418000,1794
72.418500,1814
72.419000,1822
72.419500,1803
72.420000,1801
72.420500,1818
72.421000,1805
72.421500,1802
72.422000,1817
72.422500,1845
72.423000,1803
72.423500,1809
72.424000,1820
72.424500,1807
72.425000,1786
72.425500,1823
72.426000,1813
72.426500,1800
72.427000,1820
72.427500,1820
72.428000,1798
72.428500,1816
72.429000,1820
72.429500,1808
72.430000,1801
72.430500,1824
72.431000,1810
72.431500,1806
72.432000,1812
72.432500,1819
72.433000,1799
72.433500,1850
72.434000,1822
72.434500,1807
72.435000,1806
72.435500,1818
72.436000,1810
72.436500,1793
72.437000,1812
72.437500,1813
72.438000,1799
72.438500,1790
72.439000,1816
72.439500,1805
72.440000,1803
72.440500,1826
72.441000,1822
72.441500,1806
72.442000,1819
72.442500,1816
72.443000,1805
72.443500,1806
72.444000,1820
72.444500,1814
72.445000,1800
72.445500,1813
72.446000,1827
72.446500,1801
72.447000,1806
72.447500,1814
72.448000,1808
72.448500,1789
72.449000,1809
72.449500,1820
72.450000,1810
72.450500,1822
72.451000,1828
72.451500,1808
72.452000,1798
72.452500,1818
72.453000,1823
72.453500,1800
72.454000,1820
72.454500,1821
72.455000,1806
72.455500,1805
72.456000,1822
72.456500,1805
72.457000,1795
72.457500,1809
72.458000,1779
72.458500,1797
72.459000,1809
72.459500,1812
72.460000,1801
72.460500,1798
72.461000,1821
72.461500,1806
72.462000,1802
72.462500,1818
72.463000,1818
72.463500,1807
72.464000,1808
72.464500,1834
72.465000,1810
72.465500,1800
72.466000,1820
72.466500,1805
72.467000,1800
72.467500,1811
72.468000,1821
72.468500,1805
72.469000,1815
72.469500,1819
72.470000,1810
72.470500,1782
72.471000,1821
72.471500,1820
72.472000,1797
72.472500,1814
72.473000,1823
72.473500,1804
72.474000,1799
72.474500,1823
72.475000,1809
72.475500,1800
72.476000,1815
72.476500,1821
72.477000,1796
72.477500,1813
72.478000,1813
72.478500,1800
72.479000,1795
72.479500,1811
72.480000,1813
72.480500,1804
72.481000,1816
72.481500,1841
72.482000,1802
72.482500,1815
72.483000,1823
72.483500,1806
72.484000,1801
72.484500,1833
72.485000,1830
72.485500,1807
72.486000,1824
72.486500,1822
72.487000,1804
72.487500,1796
72.488000,1808
72.488500,1810
72.489000,1798
72.489500,1814
72.490000,1823
72.490500,1805
72.491000,1814
72.491500,1817
72.492000,1806
72.492500,1812
72.493000,1820
72.493500,1820
72.494000,1797
72.494500,1814
72.495000,1821
72.495500,1797
72.496000,1819
72.496500,1819
72.497000,1803
72.497500,1794
72.498000,1816
72.498500,1806
72.499000,1798
72.499500,1816
72.500000,1815
72.500500,1801
72.501000,1794
72.501500,1817
72.502000,1806
72.502500,1794
72.503000,1817
72.503500,1829
72.504000,1802
72.504500,1817
72.505000,1821
72.505500,1798
72.506000,1794
72.506500,1818
72.507000,1808
72.507500,1797
72.508000,1806
72.508500,1824
72.509000,1802
72.509500,1810
72.510000,1826
72.510500,1800
72.511000,1795
72.511500,1810
72.512000,1799
72.512500,1798
72.513000,1824
72.513500,1824
72.514000,1800
72.514500,1799
72.515000,1818
72.515500,1806
72.516000,1799
72.516500,1813
72.517000,1820
72.517500,1800
72.518000,1810
72.518500,1817
72.519000,1801
72.519500,1795
72.520000,1817
72.520500,1807
72.521000,1799
72.521500,1812
72.522000,1822
72.522500,1800
72.523000,1822
72.523500,1820
72.524000,1803
72.524500,1804
72.525000,1823
72.525500,1829
72.526000,1800
72.526500,1817
72.527000,1821
72.527500,1800
72.528000,1807
72.528500,1816
72.529000,1808
72.529500,1806
72.530000,1826
72.530500,1831
72.531000,1805
72.531500,1817
72.532000,1821
72.532500,1801
72.533000,1789
72.533500,1816
72.534000,1805
72.534500,1794
72.535000,1817
72.535500,1822
72.536000,1801
72.536500,1803
72.537000,1815
72.537500,1802
72.538000,1789
72.538500,1812
72.539000,1806
72.539500,1799
72.540000,1814
72.540500,1819
72.541000,1803
72.541500,1802
72.542000,1818
72.542500,1808
72.543000,1796
72.543500,1821
72.544000,1826
72.544500,1815
72.545000,1823
72.545500,1824
72.546000,1808
72.546500,1800
72.547000,1818
72.547500,1811
72.548000,1800
72.548500,1812
72.549000,1827
72.549500,1802
72.550000,1812
72.550500,1822
72.551000,1807
72.551500,1801
72.552000,1820
72.552500,1835
72.553000,1800
72.553500,1817
72.554000,1825
72.554500,1805
72.555000,1825
72.555500,1821
72.556000,1809
72.556500,1793
72.557000,1814
72.557500,1811
72.558000,1800
72.558500,1814
72.559000,1813
72.559500,1799
72.560000,1796
72.560500,1821
72.561000,1804
72.561500,1801
72.562000,1817
72.562500,1818
72.563000,1801
72.563500,1836
72.564000,1827
72.564500,1805
72.565000,1798
72.565500,1812
72.566000,1821
72.566500,1800
72.567000,1813
72.567500,1820
72.568000,1796
72.568500,1829
72.569000,1820
72.569500,1807
72.570000,1802
72.570500,1820
72.571000,1811
72.571500,1797
72.572000,1809
72.572500,1824
72.573000,1806
72.573500,1792
72.574000,1820
72.574500,1808
72.575000,1798
72.575500,1820
72.576000,1830
72.576500,1799
72.577000,1809
72.577500,1812
72.578000,1799
72.578500,1785
72.579000,1815
72.579500,1800
72.580000,1803
72.580500,1812
72.581000,1826
72.581500,1802
72.582000,1831
72.582500,1821
72.583000,1804
72.583500,1804
72.584000,1823
72.584500,1810
72.585000,1802
72.585500,1824
72.586000,1830
72.586500,1804
72.587000,1798
72.587500,1821
72.588000,1808
72.588500,1800
72.589000,1811
72.589500,1813
72.590000,1807
72.590500,1808
72.591000,1825
72.591500,1802
72.592000,1803
72.592500,1824
72.593000,1804
72.593500,1794
72.594000,1815
72.594500,1822
72.595000,1812
72.595500,1811
72.596000,1826
72.596500,1801
72.597000,1794
72.597500,1808
72.598000,1790
72.598500,1794
72.599000,1811
72.599500,1818
72.600000,1804
72.600500,1777
72.601000,1813
72.601500,1804
72.602000,1798
72.602500,1811
72.603000,1825
72.603500,1796
72.604000,1820
72.604500,1821
72.605000,1810
72.605500,1806
72.606000,1829
72.606500,1808
72.607000,1802
72.607500,1818
72.608000,1830
72.608500,1796
72.609000,1825
72.609500,1816
72.610000,1809
72.610500,1809
72.611000,1819
72.611500,1815
72.612000,1792
72.612500,1816
72.613000,1824
72.613500,1798
72.614000,1806
72.614500,1831
72.615000,1810
72.615500,1799
72.616000,1822
72.616500,1819
72.617000,1797
72.617500,1808
72.618000,1812
72.618500,1799
72.619000,1798
72.619500,1815
72.620000,1806
72.620500,1796
72.621000,1816
72.621500,1830
72.622000,1798
72.622500,1811
72.623000,1822
72.623500,1806
72.624000,1803
72.624500,1824
72.625000,1814
72.625500,1803
72.626000,1821
72.626500,1826
72.627000,1803
72.627500,1836
72.628000,1816
72.628500,1811
72.629000,1803
72.629500,1813
72.630000,1795
72.630500,1803
72.631000,1822
72.631500,1825
72.632000,1808
72.632500,1805
72.633000,1820
72.633500,1774
72.634000,1799
72.634500,1819
72.635000,1829
72.635500,1810
72.636000,1819
72.636500,1822
72.637000,1799
72.637500,1795
72.638000,1806
72.638500,1812
72.639000,1797
72.639500,1811
72.640000,1840
72.640500,1792
72.641000,1803
72.641500,1840
72.642000,1801
72.642500,1792
72.643000,1827
72.643500,1831
72.644000,1799
72.644500,1821
72.645000,1826
72.645500,1805
72.646000,1799
72.646500,1824
72.647000,1808
72.647500,1800
72.648000,1821
72.648500,1813
72.649000,1802
72.649500,1820
72.650000,1821
72.650500,1804
72.651000,1794
72.651500,1825
72.652000,1803
72.652500,1798
72.653000,1818
72.653500,1829
72.654000,1795
72.654500,1829
72.655000,1834
72.655500,1806
72.656000,1790
72.656500,1818
72.657000,1819
72.657500,1794
72.658000,1811
72.658500,1814
72.659000,1804
72.659500,1799
72.660000,1818
72.660500,1806
72.661000,1802
72.661500,1818
72.662000,1823
72.662500,1800
72.663000,1812
72.663500,1821
72.664000,1802
72.664500,1796
72.665000,1827
72.665500,1800
72.666000,1803
72.666500,1817
72.667000,1823
72.667500,1803
72.668000,1800
72.668500,1816
72.669000,1808
72.669500,1791
72.670000,1821
72.670500,1808
72.671000,1796
72.671500,1818
72.672000,1820
72.672500,1808
72.673000,1791
72.673500,1828
72.674000,1808
72.674500,1798
72.675000,1819
72.675500,1824
72.676000,1795
72.676500,1820
72.677000,1815
72.677500,1804
72.678000,1795
72.678500,1817
72.679000,1809
72.679500,1797
72.680000,1816
72.680500,1823
72.681000,1794
72.681500,1812
72.682000,1825
72.682500,1807
72.683000,1798
72.683500,1819
72.684000,1812
72.684500,1803
72.685000,1835
72.685500,1823
72.686000,1806
72.686500,1816
72.687000,1824
72.687500,1808
72.688000,1802
72.688500,1819
72.689000,1810
72.689500,1802
72.690000,1813
72.690500,1822
72.691000,1806
72.691500,1798
72.692000,1820
72.692500,1805
72.693000,1800
72.693500,1822
72.694000,1828
72.694500,1805
72.695000,1818
72.695500,1821
72.696000,1794
72.696500,1794
72.697000,1814
72.697500,1805
72.698000,1801
72.698500,1814
72.699000,1824
72.699500,1803
72.700000,1809
72.700500,1815
72.701000,1808
72.701500,1799
72.702000,1824
72.702500,1805
72.703000,1815
72.703500,1822
72.704000,1823
72.704500,1811
72.705000,1793
72.705500,1823
72.706000,1811
72.706500,1800
72.707000,1820
72.707500,1822
72.708000,1800
72.708500,1812
72.709000,1822
72.709500,1810
72.710000,1803
72.710500,1822
72.711000,1810
72.711500,1802
72.712000,1824
72.712500,1822
72.713000,1798
72.713500,1810
72.714000,1816
72.714500,1803
72.715000,1800
72.715500,1814
72.716000,1820
72.716500,1794
72.717000,1813
72.717500,1818
72.718000,1804
72.718500,1810
72.719000,1815
72.719500,1803
72.720000,1792
72.720500,1814
72.721000,1817
72.721500,1797
72.722000,1809
72.722500,1818
72.723000,1803
72.723500,1793
72.724000,1823
72.724500,1806
72.725000,1799
72.725500,1828
72.726000,1833
72.726500,1804
72.727000,1805
72.727500,1823
72.728000,1800
72.728500,1806
72.729000,1822
72.729500,1789
72.730000,1815
72.730500,1824
72.731000,1821
72.731500,1801
72.732000,1796
72.732500,1818
72.733000,1810
72.733500,1798
72.734000,1818
72.734500,1828
72.735000,1799
72.735500,1818
72.736000,1824
72.736500,1803
72.737000,1792
72.737500,1811
72.738000,1803
72.738500,1797
72.739000,1815
72.739500,1823
72.740000,1803
72.740500,1818
72.741000,1819
72.741500,1798
72.742000,1800
72.742500,1813
72.743000,1809
72.743500,1796
72.744000,1823
72.744500,1824
72.745000,1806
72.745500,1808
72.746000,1829
72.746500,1802
72.747000,1794
72.747500,1823
72.748000,1816
72.748500,1802
72.749000,1815
72.749500,1823
72.750000,1810
72.750500,1808
72.751000,1822
72.751500,1800
72.752000,1798
72.752500,1818
72.753000,1818
72.753500,1807
72.754000,1821
72.754500,1820
72.755000,1809
72.755500,1802
72.756000,1826
72.756500,1805
72.757000,1796
72.757500,1813
72.758000,1814
72.758500,1795
72.759000,1811
72.759500,1812
72.760000,1807
72.760500,1790
72.761000,1813
72.761500,1808
72.762000,1799
72.762500,1822
72.763000,1828
72.763500,1799
72.764000,1815
72.764500,1823
72.765000,1804
72.765500,1804
72.766000,1824
72.766500,1803
72.767000,1800
72.767500,1816
72.768000,1818
72.768500,1800
72.769000,1799
72.769500,1821
72.770000,1809
72.770500,1801
72.771000,1823
72.771500,1827
72.772000,1803
72.772500,1817
72.773000,1821
72.773500,1811
72.774000,1796
72.774500,1822
72.775000,1811
72.775500,1805
72.776000,1820
72.776500,1822
72.777000,1799
72.777500,1836
72.778000,1809
72.778500,1799
72.779000,1795
72.779500,1812
72.780000,1818
72.780500,1800
72.781000,1810
72.781500,1826
72.782000,1806
72.782500,1790
72.783000,1823
72.783500,1808
72.784000,1795
72.784500,1824
72.785000,1822
72.785500,1808
72.786000,1818
72.786500,1825
72.787000,1805
72.787500,1800
72.788000,1806
72.788500,1802
72.789000,1806
72.789500,1815
72.790000,1831
72.790500,1808
72.791000,1811
72.791500,1819
72.792000,1809
72.792500,1791
72.793000,1815
72.793500,1800
72.794000,1798
72.794500,1817
72.795000,1828
72.795500,1813
72.796000,1802
72.796500,1819
72.797000,1802
72.797500,1794
72.798000,1804
72.798500,1815
72.799000,1798
72.799500,1810
72.800000,1818
72.800500,1806
72.801000,1799
72.801500,1822
72.802000,1812
72.802500,1796
72.803000,1819
72.803500,1823
72.804000,1802
72.804500,1821
72.805000,1830
72.805500,1813
72.806000,1800
72.806500,1820
72.807000,1806
72.807500,1801
72.808000,1815
72.808500,1820
72.809000,1811
72.809500,1799
72.810000,1824
72.810500,1798
72.811000,1799
72.811500,1817
72.812000,1820
72.812500,1798
72.813000,1809
72.813500,1820
72.814000,1802
72.814500,1786
72.815000,1823
72.815500,1810
72.816000,1804
72.816500,1818
72.817000,1817
72.817500,1799
72.818000,1841
72.818500,1812
72.819000,1803
72.819500,1798
72.820000,1824
72.820500,1792
72.821000,1798
72.821500,1817
72.822000,1824
72.822500,1799
72.823000,1787
72.823500,1820
72.824000,1811
72.824500,1800
72.825000,1830
72.825500,1826
72.826000,1809
72.826500,1812
72.827000,1821
72.827500,1806
72.828000,1797
72.828500,1820
72.829000,1820
72.829500,1801
72.830000,1818
72.830500,1829
72.831000,1795
72.831500,1811
72.832000,1815
72.832500,1805
72.833000,1800
72.833500,1823
72.834000,1803
72.834500,1797
72.835000,1818
72.835500,1822
72.836000,1805
72.836500,1794
72.837000,1816
72.837500,1801
72.838000,1798
72.838500,1810
72.839000,1814
72.839500,1799
72.840000,1823
72.840500,1814
72.841000,1805
72.841500,1792
72.842000,1826
72.842500,1810
72.843000,1799
72.843500,1811
72.844000,1815
72.844500,1814
72.845000,1827
72.845500,1823
72.846000,1809
72.846500,1798
72.847000,1817
72.847500,1826
72.848000,1799
72.848500,1812
72.849000,1822
72.849500,1809
72.850000,1802
72.850500,1834
72.851000,1804
72.851500,1795
72.852000,1815
72.852500,1824
72.853000,1811
72.853500,1798
72.854000,1825
72.854500,1808
72.855000,1805
72.855500,1824
72.856000,1811
72.856500,1802
72.857000,1812
72.857500,1814
72.858000,1794
72.858500,1797
72.859000,1813
72.859500,1804
72.860000,1801
72.860500,1813
72.861000,1824
72.861500,1798
72.862000,1798
72.862500,1820
72.863000,1810
72.863500,1804
72.864000,1822
72.864500,1808
72.865000,1799
72.865500,1825
72.866000,1830
72.866500,1806
72.867000,1797
72.867500,1819
72.868000,1814
72.868500,1801
72.869000,1823
72.869500,1819
72.870000,1809
72.870500,1807
72.871000,1824
72.871500,1800
72.872000,1795
72.872500,1809
72.873000,1819
72.873500,1796
72.874000,1814
72.874500,1822
72.875000,1810
72.875500,1820
72.876000,1835
72.876500,1806
72.877000,1797
72.877500,1810
72.878000,1815
72.878500,1795
72.879000,1811
72.879500,1813
72.880000,1803
72.880500,1796
72.881000,1814
72.881500,1803
72.882000,1799
72.882500,1821
72.883000,1826
72.883500,1803
72.884000,1818
72.884500,1828
72.885000,1817
72.885500,1793
72.886000,1827
72.886500,1812
72.887000,1799
72.887500,1816
72.888000,1817
72.888500,1811
72.889000,1789
72.889500,1815
72.890000,1810
72.890500,1796
72.891000,1824
72.891500,1828
72.892000,1797
72.892500,1817
72.893000,1827
72.893500,1798
72.894000,1791
72.894500,1813
72.895000,1808
72.895500,1803
72.896000,1823
72.896500,1822
72.897000,1799
72.897500,1807
72.898000,1814
72.898500,1806
72.899000,1798
72.899500,1812
72.900000,1791
72.900500,1798
72.901000,1813
72.901500,1823
72.902000,1800
72.902500,1799
72.903000,1819
72.903500,1806
72.904000,1798
72.904500,1816
72.905000,1831
72.905500,1804
72.906000,1817
72.906500,1822
72.907000,1802
72.907500,1798
72.908000,1811
72.908500,1841
72.909000,1800
72.909500,1818
72.910000,1826
72.910500,1804
72.911000,1785
72.911500,1820
72.912000,1808
72.912500,1796
72.913000,1819
72.913500,1830
72.914000,1798
72.914500,1815
72.915000,1820
72.915500,1804
72.916000,1793
72.916500,1819
72.917000,1802
72.917500,1795
72.918000,1813
72.918500,1820
72.919000,1796
72.919500,1789
72.920000,1813
72.920500,1803
72.921000,1797
72.921500,1817
72.922000,1794
72.922500,1795
72.923000,1813
72.923500,1822
72.924000,1808
72.924500,1801
72.925000,1824
72.925500,1814
72.926000,1800
72.926500,1820
72.927000,1822
72.927500,1800
72.928000,1816
72.928500,1817
72.929000,1806
72.929500,1804
72.930000,1812
72.930500,1805
72.931000,1803
72.931500,1819
72.932000,1820
72.932500,1804
72.933000,1819
72.933500,1823
72.934000,1798
72.934500,1794
72.935000,1828
72.935500,1806
72.936000,1801
72.936500,1815
72.937000,1818
72.937500,1802
72.938000,1794
72.938500,1818
72.939000,1807
72.939500,1800
72.940000,1814
72.940500,1820
72.941000,1798
72.941500,1817
72.942000,1819
72.942500,1795
72.943000,1802
72.943500,1815
72.944000,1819
72.944500,1795
72.945000,1825
72.945500,1840
72.946000,1802
72.946500,1810
72.947000,1821
72.947500,1804
72.948000,1800
72.948500,1814
72.949000,1840
72.949500,1798
72.950000,1824
72.950500,1821
72.951000,1812
72.951500,1801
72.952000,1817
72.952500,1807
72.953000,1802
72.953500,1820
72.954000,1830
72.954500,1803
72.955000,1812
72.955500,1826
72.956000,1797
72.956500,1792
72.957000,1815
72.957500,1808
72.958000,1798
72.958500,1812
72.959000,1816
72.959500,1801
72.960000,1796
72.960500,1820
72.961000,1809
72.961500,1796
72.962000,1809
72.962500,1826
72.963000,1801
72.963500,1819
72.964000,1827
72.964500,1800
72.965000,1801
72.965500,1819
72.966000,1813
72.966500,1804
72.967000,1816
72.967500,1823
72.968000,1798
72.968500,1814
72.969000,1810
72.969500,1804
72.970000,1801
72.970500,1815
72.971000,1794
72.971500,1804
72.972000,1817
72.972500,1823
72.973000,1811
72.973500,1788
72.974000,1812
72.974500,1808
72.975000,1802
72.975500,1812
72.976000,1824
72.976500,1801
72.977000,1805
72.977500,1816
72.978000,1804
72.978500,1792
72.979000,1814
72.979500,1809
72.980000,1800
72.980500,1816
72.981000,1825
72.981500,1801
72.982000,1807
72.982500,1821
72.983000,1806
72.983500,1801
72.984000,1823
72.984500,1827
72.985000,1802
72.985500,1811
72.986000,1827
72.986500,1804
72.987000,1796
72.987500,1818
72.988000,1813
72.988500,1805
72.989000,1818
72.989500,1825
72.990000,1807
72.990500,1816
72.991000,1826
72.991500,1808
72.992000,1798
72.992500,1810
72.993000,1809
72.993500,1797
72.994000,1812
72.994500,1820
72.995000,1811
72.995500,1797
72.996000,1819
72.996500,1808
72.997000,1797
72.997500,1809
72.998000,1815
72.998500,1800
72.999000,1812
72.999500,1816
73.000000,1799
73.000500,1791
73.001000,1809
73.001500,1805
73.002000,1794
73.002500,1813
73.003000,1828
73.003500,1805
73.004000,1815
73.004500,1824
73.005000,1811
73.005500,1801
73.006000,1825
73.006500,1801
73.007000,1799
73.007500,1818
73.008000,1820
73.008500,1804
73.009000,1802
73.009500,1825
73.010000,1810
73.010500,1802
73.011000,1820
73.011500,1830
73.012000,1794
73.012500,1812
73.013000,1822
73.013500,1804
73.014000,1795
73.014500,1833
73.015000,1808
73.015500,1799
73.016000,1818
73.016500,1824
73.017000,1802
73.017500,1798
73.018000,1810
73.018500,1795
73.019000,1794
73.019500,1818
73.020000,1794
73.020500,1797
73.021000,1815
73.021500,1816
73.022000,1804
73.022500,1798
73.023000,1820
73.023500,1812
73.024000,1801
73.024500,1816
73.025000,1824
73.025500,1804
73.026000,1822
73.026500,1829
73.027000,1805
73.027500,1796
73.028000,1815
73.028500,1812
73.029000,1806
73.029500,1818
73.030000,1819
73.030500,1802
73.031000,1815
73.031500,1818
73.032000,1798
73.032500,1802
73.033000,1817
73.033500,1814
73.034000,1797
73.034500,1820
73.035000,1822
73.035500,1805
73.036000,1832
73.036500,1820
73.037000,1801
73.037500,1795
73.038000,1807
73.038500,1797
73.039000,1794
73.039500,1816
73.040000,1816
73.040500,1803
73.041000,1800
73.041500,1817
73.042000,1801
73.042500,1802
73.043000,1818
73.043500,1818
73.044000,1803
73.044500,1821
73.045000,1823
73.045500,1813
73.046000,1801
73.046500,1821
73.047000,1810
73.047500,1798
73.048000,1806
73.048500,1811
73.049000,1804
73.049500,1785
73.050000,1819
73.050500,1810
73.051000,1799
73.051500,1821
73.052000,1810
73.052500,1804
73.053000,1822
73.053500,1824
73.054000,1811
73.054500,1797
73.055000,1822
73.055500,1783
73.056000,1800
73.056500,1819
73.057000,1820
73.057500,1798
73.058000,1806
73.058500,1813
73.059000,1806
73.059500,1797
73.060000,1815
73.060500,1801
73.061000,1803
73.061500,1812
73.062000,1825
73.062500,1806
73.063000,1818
73.063500,1818
73.064000,1808
73.064500,1796
73.065000,1813
73.065500,1822
73.066000,1798
73.066500,1813
73.067000,1822
73.067500,1806
73.068000,1802
73.068500,1820
73.069000,1812
73.069500,1799
73.070000,1818
73.070500,1824
73.071000,1820
73.071500,1840
73.072000,1823
73.072500,1808
73.073000,1790
73.073500,1822
73.074000,1816
73.074500,1800
73.075000,1819
73.075500,1821
73.076000,1807
73.076500,1812
73.077000,1817
73.077500,1800
73.078000,1794
73.078500,1804
73.079000,1819
73.079500,1801
73.080000,1803
73.080500,1819
73.081000,1806
73.081500,1780
73.082000,1812
73.082500,1804
73.083000,1797
73.083500,1815
73.084000,1818
73.084500,1806
73.085000,1836
73.085500,1816
73.086000,1803
73.086500,1797
73.087000,1821
73.087500,1824
73.088000,1800
73.088500,1820
73.089000,1823
73.089500,1808
73.090000,1792
73.090500,1820
73.091000,1810
73.091500,1794
73.092000,1813
73.092500,1813
73.093000,1804
73.093500,1808
73.094000,1825
73.094500,1807
73.095000,1802
73.095500,1817
73.096000,1797
73.096500,1804
73.097000,1814
73.097500,1817
73.098000,1802
73.098500,1796
73.099000,1811
73.099500,1805
73.100000,1798
73.100500,1817
73.101000,1831
73.101500,1797
73.102000,1810
73.102500,1821
73.103000,1805
73.103500,1801
73.104000,1820
73.104500,1832
73.105000,1807
73.105500,1812
73.106000,1832
73.106500,1804
73.107000,1832
73.107500,1819
73.108000,1805
73.108500,1796
73.109000,1825
73.109500,1818
73.110000,1797
73.110500,1814
73.111000,1820
73.111500,1792
73.112000,1790
73.112500,1820
73.113000,1808
73.113500,1794
73.114000,1817
73.114500,1821
73.115000,1799
73.115500,1811
73.116000,1820
73.116500,1804
73.117000,1796
73.117500,1816
73.118000,1801
73.118500,1796
73.119000,1809
73.119500,1816
73.120000,1798
73.120500,1808
73.121000,1821
73.121500,1803
73.122000,1802
73.122500,1826
73.123000,1795
73.123500,1795
73.124000,1815
73.124500,1827
73.125000,1818
73.125500,1804
73.126000,1830
73.126500,1813
73.127000,1798
73.127500,1815
73.128000,1817
73.128500,1803
73.129000,1807
73.129500,1813
73.130000,1806
73.130500,1802
73.131000,1826
73.131500,1813
73.132000,1798
73.132500,1818
73.133000,1819
73.133500,1801
73.134000,1824
73.134500,1821
73.135000,1808
73.135500,1801
73.136000,1821
73.136500,1822
73.137000,1794
73.137500,1810
73.138000,1811
73.138500,1802
73.139000,1800
73.139500,1810
73.140000,1800
73.140500,1794
73.141000,1809
73.141500,1813
73.142000,1796
73.142500,1817
73.143000,1820
73.143500,1797
73.144000,1797
73.144500,1818
73.145000,1821
73.145500,1804
73.146000,1823
73.146500,1831
73.147000,1803
73.147500,1816
73.148000,1816
73.148500,1802
73.149000,1808
73.149500,1821
73.150000,1829
73.150500,1799
73.151000,1819
73.151500,1818
73.152000,1804
73.152500,1804
73.153000,1824
73.153500,1813
73.154000,1800
73.154500,1818
73.155000,1826
73.155500,1801
73.156000,1820
73.156500,1822
73.157000,1800
73.157500,1792
73.158000,1811
73.158500,1800
73.159000,1802
73.159500,1811
73.160000,1822
73.160500,1798
73.161000,1800
73.161500,1819
73.162000,1795
73.162500,1802
73.163000,1821
73.163500,1828
73.164000,1802
73.164500,1818
73.165000,1828
73.165500,1796
73.166000,1798
73.166500,1823
73.167000,1812
73.167500,1798
73.168000,1811
73.168500,1816
73.169000,1807
73.169500,1819
73.170000,1822
73.170500,1810
73.171000,1809
73.171500,1814
73.172000,1822
73.172500,1781
73.173000,1816
73.173500,1818
73.174000,1798
73.174500,1803
73.175000,1823
73.175500,1811
73.176000,1801
73.176500,1814
73.177000,1820
73.177500,1796
73.178000,1804
73.178500,1813
73.179000,1803
73.179500,1789
73.180000,1821
73.180500,1814
73.181000,1797
73.181500,1817
73.182000,1818
73.182500,1811
73.183000,1825
73.183500,1818
73.184000,1804
73.184500,1798
73.185000,1828
73.185500,1826
73.186000,1802
73.186500,1820
73.187000,1824
73.187500,1807
73.188000,1803
73.188500,1817
73.189000,1803
73.189500,1796
73.190000,1816
73.190500,1830
73.191000,1797
73.191500,1814
73.192000,1820
73.192500,1807
73.193000,1793
73.193500,1819
73.194000,1813
73.194500,1800
73.195000,1818
73.195500,1826
73.196000,1803
73.196500,1827
73.197000,1817
73.197500,1799
73.198000,1794
73.198500,1810
73.199000,1819
73.199500,1794
73.200000,1818
73.200500,1824
73.201000,1804
73.201500,1805
73.202000,1813
73.202500,1807
73.203000,1791
73.203500,1815
73.204000,1822
73.204500,1800
73.205000,1812
73.205500,1827
73.206000,1808
73.206500,1800
73.207000,1821
73.207500,1807
73.208000,1800
73.208500,1804
73.209000,1818
73.209500,1803
73.210000,1802
73.210500,1819
73.211000,1806
73.211500,1799
73.212000,1818
73.212500,1826
73.213000,1802
73.213500,1815
73.214000,1821
73.214500,1804
73.215000,1798
73.215500,1818
73.216000,1815
73.216500,1799
73.217000,1814
73.217500,1817
73.218000,1801
73.218500,1804
73.219000,1814
73.219500,1806
73.220000,1803
73.220500,1818
73.221000,1816
73.221500,1800
73.222000,1811
73.222500,1817
73.223000,1807
73.223500,1793
73.224000,1821
73.224500,1809
73.225000,1809
73.225500,1810
73.226000,1819
73.226500,1805
73.227000,1827
73.227500,1817
73.228000,1809
73.228500,1801
73.229000,1812
73.229500,1812
73.230000,1799
73.230500,1814
73.231000,1822
73.231500,1801
73.232000,1796
73.232500,1819
73.233000,1805
73.233500,1801
73.234000,1819
73.234500,1823
73.235000,1817
73.235500,1810
73.236000,1822
73.236500,1805
73.237000,1793
73.237500,1814
73.238000,1802
73.238500,1801
73.239000,1810
73.239500,1816
73.240000,1805
73.240500,1792
73.241000,1817
73.241500,1801
73.242000,1803
73.242500,1815
73.243000,1824
73.243500,1809
73.244000,1815
73.244500,1815
73.245000,1810
73.245500,1808
73.246000,1832
73.246500,1810
73.247000,1800
73.247500,1818
73.248000,1824
73.248500,1796
73.249000,1831
73.249500,1818
73.250000,1800
73.250500,1805
73.251000,1830
73.251500,1787
73.252000,1806
73.252500,1807
73.253000,1826
73.253500,1811
73.254000,1790
73.254500,1821
73.255000,1809
73.255500,1800
73.256000,1823
73.256500,1826
73.257000,1800
73.257500,1822
73.258000,1813
73.258500,1801
73.259000,1802
73.259500,1822
73.260000,1804
73.260500,1800
73.261000,1809
73.261500,1814
73.262000,1800
73.262500,1826
73.263000,1817
73.263500,1802
73.264000,1803
73.264500,1825
73.265000,1831
73.265500,1800
73.266000,1825
73.266500,1826
73.267000,1804
73.267500,1801
73.268000,1820
73.268500,1810
73.269000,1799
73.269500,1820
73.270000,1832
73.270500,1800
73.271000,1812
73.271500,1817
73.272000,1812
73.272500,1797
73.273000,1811
73.273500,1793
73.274000,1801
73.274500,1816
73.275000,1829
73.275500,1802
73.276000,1801
73.276500,1814
73.277000,1803
73.277500,1793
73.278000,1812
73.278500,1815
73.279000,1800
73.279500,1809
73.280000,1817
73.280500,1799
73.281000,1780
73.281500,1822
73.282000,1796
73.282500,1806
73.283000,1818
73.283500,1821
73.284000,1804
73.284500,1818
73.285000,1824
73.285500,1809
73.286000,1798
73.286500,1824
73.287000,1809
73.287500,1801
73.288000,1818
73.288500,1822
73.289000,1806
73.289500,1791
73.290000,1820
73.290500,1826
73.291000,1804
73.291500,1815
73.292000,1828
73.292500,1799
73.293000,1810
73.293500,1823
73.294000,1802
73.294500,1797
73.295000,1824
73.295500,1815
73.296000,1799
73.296500,1818
73.297000,1822
73.297500,1801
73.298000,1815
73.298500,1813
73.299000,1801
73.299500,1791
73.300000,1817
73.300500,1817
73.301000,1795
73.301500,1814
73.302000,1823
73.302500,1796
73.303000,1790
73.303500,1814
73.304000,1810
73.304500,1802
73.305000,1817
73.305500,1820
73.306000,1801
73.306500,1814
73.307000,1821
73.307500,1805
73.308000,1799
73.308500,1808
73.309000,1824
73.309500,1795
73.310000,1816
73.310500,1818
73.311000,1806
73.311500,1791
73.312000,1820
73.312500,1805
73.313000,1799
73.313500,1818
73.314000,1823
73.314500,1798
73.315000,1814
73.315500,1820
73.316000,1808
73.316500,1797
73.317000,1817
73.317500,1802
73.318000,1799
73.318500,1812
73.319000,1810
73.319500,1803
73.320000,1835
73.320500,1819
73.321000,1807
73.321500,1796
73.322000,1813
73.322500,1801
73.323000,1806
73.323500,1815
73.324000,1816
73.324500,1800
73.325000,1801
73.325500,1826
73.326000,1818
73.326500,1808
73.327000,1820
73.327500,1825
73.328000,1801
73.328500,1810
73.329000,1818
73.329500,1805
73.330000,1802
73.330500,1814
73.331000,1813
73.331500,1802
73.332000,1812
73.332500,1819
73.333000,1806
73.333500,1786
73.334000,1818
73.334500,1812
73.335000,1798
73.335500,1816
73.336000,1826
73.336500,1798
73.337000,1810
73.337500,1816
73.338000,1801
73.338500,1794
73.339000,1810
73.339500,1808
73.340000,1795
73.340500,1818
73.341000,1822
73.341500,1800
73.342000,1810
73.342500,1818
73.343000,1800
73.343500,1804
73.344000,1818
73.344500,1790
73.345000,1795
73.345500,1818
73.346000,1833
73.346500,1804
73.347000,1793
73.347500,1818
73.348000,1805
73.348500,1804
73.349000,1810
73.349500,1822
73.350000,1803
73.350500,1811
73.351000,1823
73.351500,1801
73.352000,1802
73.352500,1818
73.353000,1808
73.353500,1798
73.354000,1819
73.354500,1826
73.355000,1808
73.355500,1829
73.356000,1830
73.356500,1806
73.357000,1796
73.357500,1814
73.358000,1803
73.358500,1794
73.359000,1812
73.359500,1817
73.360000,1803
73.360500,1798
73.361000,1818
73.361500,1805
73.362000,1793
73.362500,1804
73.363000,1817
73.363500,1803
73.364000,1816
73.364500,1820
73.365000,1799
73.365500,1787
73.366000,1831
73.366500,1807
73.367000,1799
73.367500,1817
73.368000,1820
73.368500,1805
73.369000,1820
73.369500,1817
73.370000,1814
73.370500,1797
73.371000,1818
73.371500,1795
73.372000,1805
73.372500,1811
73.373000,1820
73.373500,1803
73.374000,1797
73.374500,1820
73.375000,1810
73.375500,1802
73.376000,1824
73.376500,1831
73.377000,1801
73.377500,1813
73.378000,1815
73.378500,1802
73.379000,1799
73.379500,1812
73.380000,1805
73.380500,1797
73.381000,1821
73.381500,1823
73.382000,1798
73.382500,1815
73.383000,1817
73.383500,1793
73.384000,1802
73.384500,1825
73.385000,1822
73.385500,1804
73.386000,1822
73.386500,1828
73.387000,1803
73.387500,1821
73.388000,1819
73.388500,1795
73.389000,1796
73.389500,1819
73.390000,1825
73.390500,1800
73.391000,1821
73.391500,1822
73.392000,1802
73.392500,1801
73.393000,1821
73.393500,1809
73.394000,1803
73.394500,1818
73.395000,1826
73.395500,1806
73.396000,1811
73.396500,1820
73.397000,1805
73.397500,1794
73.398000,1808
73.398500,1807
73.399000,1797
73.399500,1812
73.400000,1815
73.400500,1802
73.401000,1820
73.401500,1814
73.402000,1807
73.402500,1802
73.403000,1822
73.403500,1828
73.404000,1801
73.404500,1817
73.405000,1827
73.405500,1811
73.406000,1800
73.406500,1824
73.407000,1809
73.407500,1799
73.408000,1820
73.408500,1825
73.409000,1800
73.409500,1812
73.410000,1819
73.410500,1795
73.411000,1803
73.411500,1826
73.412000,1834
73.412500,1809
73.413000,1821
73.413500,1828
73.414000,1802
73.414500,1809
73.415000,1824
73.415500,1811
73.416000,1798
73.416500,1823
73.417000,1827
73.417500,1796
73.418000,1811
73.418500,1815
73.419000,1801
73.419500,1798
73.420000,1814
73.420500,1806
73.421000,1795
73.421500,1811
73.422000,1824
73.422500,1798
73.423000,1803
73.423500,1819
73.424000,1808
73.424500,1791
73.425000,1825
73.425500,1814
73.426000,1802
73.426500,1820
73.427000,1826
73.427500,1808
73.428000,1797
73.428500,1814
73.429000,1809
73.429500,1810
73.430000,1820
73.430500,1830
73.431000,1803
73.431500,1815
73.432000,1816
73.432500,1803
73.433000,1792
73.433500,1832
73.434000,1811
73.434500,1798
73.435000,1816
73.435500,1825
73.436000,1803
73.436500,1816
73.437000,1820
73.437500,1803
73.438000,1797
73.438500,1811
73.439000,1806
73.439500,1789
73.440000,1812
73.440500,1818
73.441000,1806
73.441500,1818
73.442000,1816
73.442500,1807
73.443000,1798
73.443500,1825
73.444000,1798
73.444500,1798
73.445000,1822
73.445500,1852
73.446000,1810
73.446500,1792
73.447000,1823
73.447500,1804
73.448000,1800
73.448500,1815
73.449000,1818
73.449500,1818
73.450000,1822
73.450500,1826
73.451000,1811
73.451500,1809
73.452000,1820
73.452500,1804
73.453000,1797
73.453500,1819
73.454000,1821
73.454500,1802
73.455000,1831
73.455500,1820
73.456000,1804
73.456500,1794
73.457000,1815
73.457500,1819
73.458000,1794
73.458500,1807
73.459000,1815
73.459500,1806
73.460000,1804
73.460500,1827
73.461000,1807
73.461500,1794
73.462000,1813
73.462500,1827
73.463000,1804
73.463500,1814
73.464000,1823
73.464500,1808
73.465000,1796
73.465500,1825
73.466000,1801
73.466500,1802
73.467000,1819
73.467500,1822
73.468000,1800
73.468500,1794
73.469000,1822
73.469500,1812
73.470000,1802
73.470500,1826
73.471000,1818
73.471500,1801
73.472000,1819
73.472500,1819
73.473000,1806
73.473500,1800
73.474000,1817
73.474500,1822
73.475000,1802
73.475500,1812
73.476000,1822
73.476500,1802
73.477000,1820
73.477500,1817
73.478000,1802
73.478500,1797
73.479000,1814
73.479500,1820
73.480000,1794
73.480500,1815
73.481000,1821
73.481500,1801
73.482000,1797
73.482500,1815
73.483000,1810
73.483500,1803
73.484000,1819
73.484500,1819
73.485000,1810
73.485500,1816
73.486000,1824
73.486500,1805
73.487000,1801
73.487500,1818
73.488000,1813
73.488500,1799
73.489000,1816
73.489500,1825
73.490000,1811
73.490500,1822
73.491000,1817
73.491500,1803
73.492000,1799
73.492500,1820
73.493000,1824
73.493500,1802
73.494000,1818
73.494500,1822
73.495000,1805
73.495500,1803
73.496000,1818
73.496500,1811
73.497000,1798
73.497500,1817
73.498000,1812
73.498500,1803
73.499000,1814
73.499500,1818
73.500000,1801
73.500500,1800
73.501000,1810
73.501500,1815
73.502000,1808
73.502500,1806
73.503000,1822
73.503500,1801
73.504000,1813
73.504500,1822
73.505000,1808
73.505500,1795
73.506000,1827
73.506500,1826
73.507000,1802
73.507500,1816
73.508000,1822
73.508500,1803
73.509000,1800
73.509500,1815
73.510000,1806
73.510500,1800
73.511000,1809
73.511500,1829
73.512000,1806
73.512500,1814
73.513000,1823
73.513500,1802
73.514000,1792
73.514500,1823
73.515000,1799
73.515500,1804
73.516000,1818
73.516500,1828
73.517000,1800
73.517500,1812
73.518000,1814
73.518500,1799
73.519000,1777
73.519500,1815
73.520000,1822
73.520500,1800
73.521000,1814
73.521500,1814
73.522000,1804
73.522500,1796
73.523000,1807
73.523500,1806
73.524000,1800
73.524500,1826
73.525000,1819
73.525500,1808
73.526000,1828
73.526500,1824
73.527000,1803
73.527500,1800
73.528000,1820
73.528500,1819
73.529000,1806
73.529500,1809
73.530000,1819
73.530500,1805
73.531000,1805
73.531500,1821
73.532000,1808
73.532500,1795
73.533000,1818
73.533500,1825
73.534000,1793
73.534500,1811
73.535000,1818
73.535500,1802
73.536000,1804
73.536500,1820
73.537000,1802
73.537500,1786
73.538000,1812
73.538500,1814
73.539000,1802
73.539500,1802
73.540000,1814
73.540500,1805
73.541000,1798
73.541500,1814
73.542000,1807
73.542500,1798
73.543000,1809
73.543500,1816
73.544000,1812
73.544500,1795
73.545000,1819
73.545500,1808
73.546000,1798
73.546500,1817
73.547000,1828
73.547500,1799
73.548000,1815
73.548500,1821
73.549000,1813
73.549500,1802
73.550000,1822
73.550500,1812
73.551000,1799
73.551500,1813
73.552000,1825
73.552500,1803
73.553000,1815
73.553500,1822
73.554000,1808
73.554500,1797
73.555000,1820
73.555500,1798
73.556000,1804
73.556500,1810
73.557000,1816
73.557500,1802
73.558000,1799
73.558500,1815
73.559000,1802
73.559500,1794
73.560000,1820
73.560500,1836
73.561000,1796
73.561500,1809
73.562000,1822
73.562500,1797
73.563000,1788
73.563500,1806
73.564000,1812
73.564500,1802
73.565000,1818
73.565500,1812
73.566000,1806
73.566500,1811
73.567000,1824
73.567500,1807
73.568000,1802
73.568500,1815
73.569000,1814
73.569500,1803
73.570000,1820
73.570500,1828
73.571000,1818
73.571500,1800
73.572000,1819
73.572500,1814
73.573000,1804
73.573500,1820
73.574000,1825
73.574500,1804
73.575000,1812
73.575500,1823
73.576000,1806
73.576500,1797
73.577000,1819
73.577500,1804
73.578000,1797
73.578500,1814
73.579000,1820
73.579500,1804
73.580000,1813
73.580500,1818
73.581000,1802
73.581500,1793
73.582000,1816
73.582500,1802
73.583000,1808
73.583500,1805
73.584000,1820
73.584500,1802
73.585000,1804
73.585500,1824
73.586000,1816
73.586500,1800
73.587000,1818
73.587500,1822
73.588000,1802
73.588500,1810
73.589000,1819
73.589500,1809
73.590000,1807
73.590500,1826
73.591000,1814
73.591500,1800
73.592000,1821
73.592500,1827
73.593000,1802
73.593500,1828
73.594000,1823
73.594500,1803
73.595000,1798
73.595500,1817
73.596000,1817
73.596500,1797
73.597000,1816
73.597500,1820
73.598000,1800
73.598500,1795
73.599000,1811
73.599500,1805
73.600000,1789
73.600500,1815
73.601000,1816
73.601500,1801
73.602000,1816
73.602500,1817
73.603000,1804
73.603500,1800
73.604000,1821
73.604500,1814
73.605000,1801
73.605500,1820
73.606000,1825
73.606500,1810
73.607000,1825
73.607500,1822
73.608000,1806
73.608500,1798
73.609000,1812
73.609500,1827
73.610000,1802
73.610500,1824
73.611000,1826
73.611500,1801
73.612000,1793
73.612500,1822
73.613000,1816
73.613500,1798
73.614000,1816
73.614500,1820
73.615000,1808
73.615500,1817
73.616000,1822
73.616500,1798
73.617000,1790
73.617500,1816
73.618000,1803
73.618500,1796
73.619000,1806
73.619500,1818
73.620000,1806
73.620500,1809
73.621000,1820
73.621500,1805
73.622000,1798
73.622500,1820
73.623000,1805
73.623500,1798
73.624000,1816
73.624500,1824
73.625000,1802
73.625500,1786
73.626000,1825
73.626500,1813
73.627000,1800
73.627500,1819
73.628000,1822
73.628500,1796
73.629000,1807
73.629500,1818
73.630000,1810
73.630500,1794
73.631000,1832
73.631500,1804
73.632000,1794
73.632500,1819
73.633000,1821
73.633500,1803
73.634000,1836
73.634500,1822
73.635000,1809
73.635500,1798
73.636000,1811
73.636500,1812
73.637000,1798
73.637500,1814
73.638000,1815
73.638500,1800
73.639000,1787
73.639500,1811
73.640000,1808
73.640500,1800
73.641000,1808
73.641500,1817
73.642000,1804
73.642500,1816
73.643000,1822
73.643500,1804
73.644000,1801
73.644500,1826
73.645000,1817
73.645500,1802
73.646000,1824
73.646500,1828
73.647000,1804
73.647500,1821
73.648000,1823
73.648500,1804
73.649000,1797
73.649500,1817
73.650000,1817
73.650500,1802
73.651000,1825
73.651500,1825
73.652000,1803
73.652500,1798
73.653000,1820
73.653500,1809
73.654000,1802
73.654500,1819
73.655000,1823
73.655500,1802
73.656000,1798
73.656500,1823
73.657000,1802
73.657500,1794
73.658000,1818
73.658500,1806
73.659000,1796
73.659500,1813
73.660000,1818
73.660500,1802
73.661000,1784
73.661500,1816
73.662000,1808
73.662500,1801
73.663000,1821
73.663500,1829
73.664000,1801
73.664500,1816
73.665000,1825
73.665500,1811
73.666000,1802
73.666500,1816
73.667000,1810
73.667500,1799
73.668000,1820
73.668500,1817
73.669000,1803
73.669500,1814
73.670000,1820
73.670500,1816
73.671000,1811
73.671500,1827
73.672000,1809
73.672500,1796
73.673000,1818
73.673500,1820
73.674000,1803
73.674500,1799
73.675000,1820
73.675500,1811
73.676000,1808
73.676500,1817
73.677000,1823
73.677500,1808
73.678000,1808
73.678500,1815
73.679000,1797
73.679500,1798
73.680000,1818
73.680500,1808
73.681000,1793
73.681500,1816
73.682000,1826
73.682500,1799
73.683000,1811
73.683500,1827
73.684000,1808
73.684500,1796
73.685000,1818
73.685500,1813
73.686000,1799
73.686500,1813
73.687000,1828
73.687500,1802
73.688000,1810
73.688500,1815
73.689000,1804
73.689500,1780
73.690000,1822
73.690500,1808
73.691000,1804
73.691500,1821
73.692000,1820
73.692500,1797
73.693000,1795
73.693500,1816
73.694000,1805
73.694500,1798
73.695000,1817
73.695500,1832
73.696000,1808
73.696500,1818
73.697000,1820
73.697500,1800
73.698000,1792
73.698500,1812
73.699000,1801
73.699500,1794
73.700000,1809
73.700500,1823
73.701000,1801
73.701500,1809
73.702000,1816
73.702500,1804
73.703000,1799
73.703500,1814
73.704000,1796
73.704500,1798
73.705000,1811
73.705500,1827
73.706000,1804
73.706500,1790
73.707000,1822
73.707500,1809
73.708000,1800
73.708500,1820
73.709000,1818
73.709500,1808
73.710000,1822
73.710500,1823
73.711000,1805
73.711500,1798
73.712000,1820
73.712500,1803
73.713000,1797
73.713500,1814
73.714000,1823
73.714500,1802
73.715000,1827
73.715500,1818
73.716000,1802
73.716500,1793
73.717000,1812
73.717500,1820
73.718000,1801
73.718500,1810
73.719000,1815
73.719500,1793
73.720000,1792
73.720500,1817
73.721000,1808
73.721500,1794
73.722000,1820
73.722500,1821
73.723000,1800
73.723500,1808
73.724000,1820
73.724500,1808
73.725000,1804
73.725500,1831
73.726000,1814
73.726500,1801
73.727000,1819
73.727500,1824
73.728000,1804
73.728500,1800
73.729000,1817
73.729500,1805
73.730000,1796
73.730500,1820
73.731000,1820
73.731500,1797
73.732000,1814
73.732500,1823
73.733000,1808
73.733500,1797
73.734000,1818
73.734500,1818
73.735000,1802
73.735500,1817
73.736000,1827
73.736500,1802
73.737000,1830
73.737500,1820
73.738000,1801
73.738500,1791
73.739000,1815
73.739500,1815
73.740000,1799
73.740500,1816
73.741000,1816
73.741500,1802
73.742000,1791
73.742500,1823
73.743000,1820
73.743500,1798
73.744000,1819
73.744500,1822
73.745000,1806
73.745500,1800
73.746000,1822
73.746500,1804
73.747000,1797
73.747500,1818
73.748000,1804
73.748500,1805
73.749000,1814
73.749500,1816
73.750000,1810
73.750500,1803
73.751000,1815
73.751500,1804
73.752000,1799
73.752500,1826
73.753000,1821
73.753500,1799
73.754000,1816
73.754500,1823
73.755000,1806
73.755500,1796
73.756000,1825
73.756500,1805
73.757000,1804
73.757500,1818
73.758000,1817
73.758500,1800
73.759000,1820
73.759500,1812
73.760000,1802
73.760500,1802
73.761000,1810
73.761500,1819
73.762000,1796
73.762500,1816
73.763000,1814
73.763500,1797
73.764000,1788
73.764500,1817
73.765000,1811
73.765500,1804
73.766000,1823
73.766500,1826
73.767000,1802
73.767500,1820
73.768000,1822
73.768500,1800
73.769000,1804
73.769500,1818
73.770000,1815
73.770500,1802
73.771000,1815
73.771500,1815
73.772000,1805
73.772500,1820
73.773000,1817
73.773500,1808
73.774000,1794
73.774500,1820
73.775000,1817
73.775500,1796
73.776000,1819
73.776500,1826
73.777000,1802
73.777500,1794
73.778000,1814
73.778500,1806
73.779000,1798
73.779500,1810
73.780000,1819
73.780500,1803
73.781000,1801
73.781500,1814
73.782000,1805
73.782500,1798
73.783000,1821
73.783500,1809
73.784000,1803
73.784500,1822
73.785000,1828
73.785500,1811
73.786000,1796
73.786500,1825
73.787000,1811
73.787500,1799
73.788000,1819
73.788500,1811
73.789000,1800
73.789500,1815
73.790000,1826
73.790500,1810
73.791000,1803
73.791500,1813
73.792000,1808
73.792500,1796
73.793000,1810
73.793500,1822
73.794000,1807
73.794500,1818
73.795000,1824
73.795500,1809
73.796000,1802
73.796500,1812
73.797000,1804
73.797500,1799
73.798000,1804
73.798500,1815
73.799000,1805
73.799500,1789
73.800000,1818
73.800500,1801
73.801000,1797
73.801500,1809
73.802000,1816
73.802500,1801
73.803000,1813
73.803500,1818
73.804000,1804
73.804500,1794
73.805000,1819
73.805500,1815
73.806000,1802
73.806500,1818
73.807000,1828
73.807500,1803
73.808000,1805
73.808500,1820
73.809000,1810
73.809500,1805
73.810000,1821
73.810500,1798
73.811000,1798
73.811500,1814
73.812000,1820
73.812500,1803
73.813000,1792
73.813500,1819
73.814000,1796
73.814500,1793
73.815000,1820
73.815500,1824
