# Subject: 
# Trial: 
# Notes: 
# Muscles: Ch1
# fs=2000 Hz, nch=1, vref=3.3 V
t_s,ch1_code
381.090000,0
381.090500,0
381.091000,0
381.091500,0
381.092000,0
381.092500,0
381.093000,0
381.093500,0
381.094000,0
381.094500,0
381.095000,0
381.095500,0
381.096000,0
381.096500,0
381.097000,0
381.097500,260
381.098000,3627
381.098500,3628
381.099000,3628
381.099500,3628
381.100000,3634
381.100500,3634
381.101000,3636
381.101500,3630
381.102000,3628
381.102500,3629
381.103000,3628
381.103500,3628
381.104000,3628
381.104500,3628
381.105000,3633
381.105500,3630
381.106000,3630
381.106500,3629
381.107000,3628
381.107500,3628
381.108000,894
381.108500,0
381.109000,0
381.109500,0
381.110000,0
381.110500,0
381.111000,0
381.111500,0
381.112000,0
381.112500,0
381.113000,0
381.113500,0
381.114000,0
381.114500,0
381.115000,0
381.115500,0
381.116000,0
381.116500,0
381.117000,0
381.117500,124
381.118000,3628
381.118500,3630
381.119000,3628
381.119500,3629
381.120000,3630
381.120500,3628
381.121000,3630
381.121500,3629
381.122000,3628
381.122500,3628
381.123000,3629
381.123500,3629
381.124000,3629
381.124500,3628
381.125000,3628
381.125500,3630
381.126000,3630
381.126500,3628
381.127000,3629
381.127500,3628
381.128000,213
381.128500,0
381.129000,0
381.129500,0
381.130000,0
381.130500,0
381.131000,0
381.131500,0
381.132000,0
381.132500,0
381.133000,0
381.133500,0
381.134000,0
381.134500,0
381.135000,0
381.135500,0
381.136000,0
381.136500,0
381.137000,0
381.137500,0
381.138000,0
381.138500,1129
381.139000,3628
381.139500,3631
381.140000,3636
381.140500,3629
381.141000,3632
381.141500,3629
381.142000,3628
381.142500,3629
381.143000,3628
381.143500,3629
381.144000,3629
381.144500,3630
381.145000,3624
381.145500,3629
381.146000,3631
381.146500,3628
381.147000,3630
381.147500,3630
381.148000,3602
381.148500,0
381.149000,0
381.149500,0
381.150000,0
381.150500,0
381.151000,0
381.151500,0
381.152000,0
381.152500,0
381.153000,0
381.153500,0
381.154000,0
381.154500,0
381.155000,0
381.155500,0
381.156000,0
381.156500,0
381.157000,0
381.157500,0
381.158000,628
381.158500,3628
381.159000,3629
381.159500,3628
381.160000,3626
381.160500,3630
381.161000,3631
381.161500,3629
381.162000,3628
381.162500,3628
381.163000,3628
381.163500,3628
381.164000,3629
381.164500,3628
381.165000,3628
381.165500,3629
381.166000,3631
381.166500,3627
381.167000,3629
381.167500,3629
381.168000,953
381.168500,0
381.169000,0
381.169500,0
381.170000,0
381.170500,0
381.171000,0
381.171500,0
381.172000,0
381.172500,0
381.173000,0
381.173500,0
381.174000,0
381.174500,0
381.175000,0
381.175500,0
381.176000,0
381.176500,0
381.177000,0
381.177500,706
381.178000,3628
381.178500,3628
381.179000,3629
381.179500,3629
381.180000,3627
381.180500,3630
381.181000,3631
381.181500,3630
381.182000,3628
381.182500,3629
381.183000,3628
381.183500,3628
381.184000,3628
381.184500,3628
381.185000,3632
381.185500,3631
381.186000,3631
381.186500,3628
381.187000,3628
381.187500,3628
381.188000,3342
381.188500,0
381.189000,0
381.189500,0
381.190000,0
381.190500,0
381.191000,0
381.191500,0
381.192000,0
381.192500,0
381.193000,0
381.193500,0
381.194000,0
381.194500,0
381.195000,0
381.195500,0
381.196000,0
381.196500,0
381.197000,0
381.197500,0
381.198000,1442
381.198500,3630
381.199000,3630
381.199500,3629
381.200000,3626
381.200500,3632
381.201000,3636
381.201500,3628
381.202000,3629
381.202500,3628
381.203000,3628
381.203500,3628
381.204000,3628
381.204500,3628
381.205000,3628
381.205500,3629
381.206000,3630
381.206500,3628
381.207000,3628
381.207500,3630
381.208000,2542
381.208500,0
381.209000,0
381.209500,0
381.210000,0
381.210500,0
381.211000,0
381.211500,0
381.212000,0
381.212500,0
381.213000,0
381.213500,0
381.214000,0
381.214500,0
381.215000,0
381.215500,0
381.216000,0
381.216500,0
381.217000,0
381.217500,0
381.218000,0
381.218500,2001
381.219000,3630
381.219500,3630
381.220000,3634
381.220500,3630
381.221000,3632
381.221500,3628
381.222000,3628
381.222500,3628
381.223000,3630
381.223500,3630
381.224000,3629
381.224500,3628
381.225000,3628
381.225500,3629
381.226000,3630
381.226500,3629
381.227000,3628
381.227500,3628
381.228000,3628
381.228500,0
381.229000,0
381.229500,0
381.230000,0
381.230500,0
381.231000,0
381.231500,0
381.232000,0
381.232500,0
381.233000,0
381.233500,0
381.234000,0
381.234500,0
381.235000,0
381.235500,0
381.236000,0
381.236500,0
381.237000,0
381.237500,1948
381.238000,3629
381.238500,3629
381.239000,3629
381.239500,3629
381.240000,3629
381.240500,3630
381.241000,3632
381.241500,3629
381.242000,3628
381.242500,3628
381.243000,3628
381.243500,3628
381.244000,3628
381.244500,3628
381.245000,3624
381.245500,3630
381.246000,3631
381.246500,3628
381.247000,3629
381.247500,3628
381.248000,1209
381.248500,0
381.249000,0
381.249500,0
381.250000,0
381.250500,0
381.251000,0
381.251500,0
381.252000,0
381.252500,0
381.253000,0
381.253500,0
381.254000,0
381.254500,0
381.255000,0
381.255500,0
381.256000,0
381.256500,0
381.257000,79
381.257500,2818
381.258000,3630
381.258500,3629
381.259000,3629
381.259500,3629
381.260000,3633
381.260500,3629
381.261000,3631
381.261500,3629
381.262000,3629
381.262500,3628
381.263000,3628
381.263500,3628
381.264000,3628
381.264500,3628
381.265000,3629
381.265500,3633
381.266000,3635
381.266500,3629
381.267000,3628
381.267500,3628
381.268000,1381
381.268500,0
381.269000,0
381.269500,0
381.270000,0
381.270500,0
381.271000,0
381.271500,0
381.272000,0
381.272500,0
381.273000,0
381.273500,0
381.274000,0
381.274500,0
381.275000,0
381.275500,0
381.276000,0
381.276500,0
381.277000,0
381.277500,614
381.278000,3628
381.278500,3630
381.279000,3628
381.279500,3628
381.280000,3634
381.280500,3630
381.281000,3632
381.281500,3628
381.282000,3628
381.282500,3629
381.283000,3629
381.283500,3629
381.284000,3628
381.284500,3627
381.285000,3625
381.285500,3629
381.286000,3630
381.286500,3628
381.287000,3628
381.287500,3630
381.288000,2898
381.288500,3626
381.289000,1521
381.289500,0
381.290000,0
381.290500,0
381.291000,0
381.291500,0
381.292000,0
381.292500,0
381.293000,0
381.293500,0
381.294000,0
381.294500,0
381.295000,0
381.295500,0
381.296000,0
381.296500,0
381.297000,0
381.297500,0
381.298000,0
381.298500,0
381.299000,3627
381.299500,3629
381.300000,3634
381.300500,3630
381.301000,3631
381.301500,3628
381.302000,3628
381.302500,3628
381.303000,3628
381.303500,3628
381.304000,3628
381.304500,3629
381.305000,3626
381.305500,3630
381.306000,3630
381.306500,3628
381.307000,3628
381.307500,3628
381.308000,1011
381.308500,0
381.309000,0
381.309500,0
381.310000,0
381.310500,0
381.311000,0
381.311500,0
381.312000,0
381.312500,0
381.313000,0
381.313500,0
381.314000,0
381.314500,0
381.315000,0
381.315500,0
381.316000,0
381.316500,0
381.317000,0
381.317500,0
381.318000,0
381.318500,1077
381.319000,3628
381.319500,3630
381.320000,3627
381.320500,3634
381.321000,3635
381.321500,3628
381.322000,3630
381.322500,3628
381.323000,3627
381.323500,3628
381.324000,3628
381.324500,3628
381.325000,3626
381.325500,3630
381.326000,3632
381.326500,3629
381.327000,3629
381.327500,3629
381.328000,1914
381.328500,0
381.329000,0
381.329500,0
381.330000,0
381.330500,0
381.331000,0
381.331500,0
381.332000,0
381.332500,0
381.333000,0
381.333500,0
381.334000,0
381.334500,0
381.335000,0
381.335500,0
381.336000,0
381.336500,0
381.337000,905
381.337500,3627
381.338000,3630
381.338500,3629
381.339000,3629
381.339500,3629
381.340000,3628
381.340500,3629
381.341000,3631
381.341500,3628
381.342000,3628
381.342500,3628
381.343000,3629
381.343500,3629
381.344000,3630
381.344500,3628
381.345000,3627
381.345500,3628
381.346000,3630
381.346500,3627
381.347000,3629
381.347500,3629
381.348000,3081
381.348500,0
381.349000,0
381.349500,0
381.350000,0
381.350500,0
381.351000,0
381.351500,0
381.352000,0
381.352500,0
381.353000,0
381.353500,0
381.354000,0
381.354500,0
381.355000,0
381.355500,0
381.356000,0
381.356500,0
381.357000,0
381.357500,0
381.358000,1858
381.358500,3629
381.359000,3628
381.359500,3628
381.360000,3630
381.360500,3630
381.361000,3632
381.361500,3629
381.362000,3628
381.362500,3629
381.363000,3628
381.363500,3628
381.364000,3628
381.364500,3628
381.365000,3627
381.365500,3634
381.366000,3633
381.366500,3628
381.367000,3628
381.367500,3628
381.368000,0
381.368500,0
381.369000,0
381.369500,0
381.370000,0
381.370500,0
381.371000,0
381.371500,0
381.372000,0
381.372500,0
381.373000,0
381.373500,0
381.374000,0
381.374500,0
381.375000,0
381.375500,0
381.376000,0
381.376500,0
381.377000,0
381.377500,332
381.378000,3626
381.378500,3630
381.379000,3628
381.379500,3629
381.380000,3630
381.380500,3630
381.381000,3632
381.381500,3628
381.382000,3629
381.382500,3630
381.383000,3628
381.383500,3629
381.384000,3629
381.384500,3628
381.385000,3629
381.385500,3634
381.386000,3634
381.386500,3628
381.387000,3629
381.387500,3629
381.388000,1755
381.388500,0
381.389000,0
381.389500,0
381.390000,0
381.390500,0
381.391000,0
381.391500,0
381.392000,0
381.392500,0
381.393000,0
381.393500,0
381.394000,0
381.394500,0
381.395000,0
381.395500,0
381.396000,0
381.396500,0
381.397000,0
381.397500,0
381.398000,0
381.398500,0
381.399000,192
381.399500,36
381.400000,1775
381.400500,3628
381.401000,3634
381.401500,3630
381.402000,3626
381.402500,3628
381.403000,3629
381.403500,3628
381.404000,3630
381.404500,3629
381.405000,3625
381.405500,3630
381.406000,3630
381.406500,3630
381.407000,3630
381.407500,3629
381.408000,3284
381.408500,0
381.409000,0
381.409500,0
381.410000,0
381.410500,0
381.411000,0
381.411500,0
381.412000,0
381.412500,0
381.413000,0
381.413500,0
381.414000,0
381.414500,0
381.415000,0
381.415500,0
381.416000,0
381.416500,0
381.417000,0
381.417500,1684
381.418000,3630
381.418500,3629
381.419000,3629
381.419500,3629
381.420000,3631
381.420500,3630
381.421000,3631
381.421500,3629
381.422000,3629
381.422500,3629
381.423000,3628
381.423500,3628
381.424000,3628
381.424500,3630
381.425000,3631
381.425500,3628
381.426000,3631
381.426500,3628
381.427000,3629
381.427500,3628
381.428000,3623
381.428500,0
381.429000,0
381.429500,0
381.430000,0
381.430500,0
381.431000,0
381.431500,0
381.432000,0
381.432500,0
381.433000,0
381.433500,0
381.434000,0
381.434500,0
381.435000,0
381.435500,0
381.436000,0
381.436500,0
381.437000,0
381.437500,0
381.438000,0
381.438500,301
381.439000,2049
381.439500,3629
381.440000,3631
381.440500,3631
381.441000,3631
381.441500,3629
381.442000,3628
381.442500,3630
381.443000,3628
381.443500,3628
381.444000,3628
381.444500,3628
381.445000,3629
381.445500,3629
381.446000,3631
381.446500,3630
381.447000,3630
381.447500,3630
381.448000,135
381.448500,0
381.449000,0
381.449500,0
381.450000,0
381.450500,0
381.451000,0
381.451500,0
381.452000,0
381.452500,0
381.453000,0
381.453500,0
381.454000,0
381.454500,0
381.455000,0
381.455500,0
381.456000,0
381.456500,0
381.457000,0
381.457500,549
381.458000,3626
381.458500,3629
381.459000,3628
381.459500,3630
381.460000,3630
381.460500,3633
381.461000,3636
381.461500,3629
381.462000,3629
381.462500,3628
381.463000,3629
381.463500,3628
381.464000,3629
381.464500,3629
381.465000,3640
381.465500,3629
381.466000,3630
381.466500,3628
381.467000,3628
381.467500,3630
381.468000,3319
381.468500,0
381.469000,0
381.469500,0
381.470000,0
381.470500,0
381.471000,0
381.471500,0
381.472000,0
381.472500,0
381.473000,0
381.473500,0
381.474000,0
381.474500,0
381.475000,0
381.475500,0
381.476000,0
381.476500,0
381.477000,0
381.477500,0
381.478000,648
381.478500,3628
381.479000,3628
381.479500,3628
381.480000,3630
381.480500,3629
381.481000,3631
381.481500,3629
381.482000,3628
381.482500,3629
381.483000,3628
381.483500,3628
381.484000,3628
381.484500,3630
381.485000,3634
381.485500,3629
381.486000,3631
381.486500,3628
381.487000,3628
381.487500,3629
381.488000,0
381.488500,0
381.489000,0
381.489500,0
381.490000,0
381.490500,0
381.491000,0
381.491500,0
381.492000,0
381.492500,0
381.493000,0
381.493500,0
381.494000,0
381.494500,0
381.495000,0
381.495500,0
381.496000,0
381.496500,0
381.497000,0
381.497500,361
381.498000,3625
381.498500,3628
381.499000,3628
381.499500,3628
381.500000,3628
381.500500,3629
381.501000,3632
381.501500,3628
381.502000,3629
381.502500,3628
381.503000,3628
381.503500,3628
381.504000,3628
381.504500,3628
381.505000,3636
381.505500,3630
381.506000,3631
381.506500,3628
381.507000,3629
381.507500,3630
381.508000,381
381.508500,0
381.509000,0
381.509500,0
381.510000,0
381.510500,0
381.511000,0
381.511500,0
381.512000,0
381.512500,0
381.513000,0
381.513500,0
381.514000,0
381.514500,0
381.515000,0
381.515500,0
381.516000,0
381.516500,0
381.517000,0
381.517500,0
381.518000,3624
381.518500,3630
381.519000,3629
381.519500,3628
381.520000,3634
381.520500,3630
381.521000,3631
381.521500,3629
381.522000,3629
381.522500,3629
381.523000,3628
381.523500,3629
381.524000,3628
381.524500,3628
381.525000,3630
381.525500,3629
381.526000,3630
381.526500,3628
381.527000,3629
381.527500,3629
381.528000,3618
381.528500,0
381.529000,0
381.529500,0
381.530000,0
381.530500,0
381.531000,0
381.531500,0
381.532000,0
381.532500,0
381.533000,0
381.533500,0
381.534000,0
381.534500,0
381.535000,0
381.535500,0
381.536000,0
381.536500,0
381.537000,0
381.537500,0
381.538000,0
381.538500,2368
381.539000,3630
381.539500,3631
381.540000,3634
381.540500,3629
381.541000,3632
381.541500,3629
381.542000,3628
381.542500,3628
381.543000,3629
381.543500,3630
381.544000,3629
381.544500,3628
381.545000,3629
381.545500,3630
381.546000,3631
381.546500,3628
381.547000,3629
381.547500,3628
381.548000,2587
381.548500,0
381.549000,0
381.549500,0
381.550000,0
381.550500,0
381.551000,0
381.551500,0
381.552000,0
381.552500,0
381.553000,0
381.553500,0
381.554000,0
381.554500,0
381.555000,0
381.555500,0
381.556000,0
381.556500,0
381.557000,0
381.557500,1620
381.558000,3629
381.558500,3629
381.559000,3628
381.559500,3629
381.560000,3633
381.560500,3630
381.561000,3631
381.561500,3629
381.562000,3629
381.562500,3628
381.563000,3628
381.563500,3628
381.564000,3628
381.564500,3629
381.565000,3633
381.565500,3630
381.566000,3630
381.566500,3628
381.567000,3628
381.567500,3629
381.568000,311
381.568500,0
381.569000,0
381.569500,0
381.570000,0
381.570500,0
381.571000,0
381.571500,0
381.572000,0
381.572500,0
381.573000,0
381.573500,0
381.574000,0
381.574500,0
381.575000,0
381.575500,0
381.576000,0
381.576500,0
381.577000,0
381.577500,0
381.578000,0
381.578500,1065
381.579000,3627
381.579500,3630
381.580000,3627
381.580500,3632
381.581000,3632
381.581500,3628
381.582000,3630
381.582500,3628
381.583000,3630
381.583500,3629
381.584000,3628
381.584500,3628
381.585000,3633
381.585500,3634
381.586000,3635
381.586500,3629
381.587000,3629
381.587500,3415
381.588000,485
381.588500,0
381.589000,0
381.589500,0
381.590000,0
381.590500,0
381.591000,0
381.591500,0
381.592000,0
381.592500,0
381.593000,0
381.593500,0
381.594000,0
381.594500,0
381.595000,0
381.595500,0
381.596000,0
381.596500,0
381.597000,0
381.597500,1119
381.598000,3628
381.598500,3629
381.599000,3628
381.599500,3629
381.600000,3634
381.600500,3634
381.601000,3635
381.601500,3628
381.602000,3628
381.602500,3628
381.603000,3629
381.603500,3629
381.604000,3629
381.604500,3629
381.605000,3625
381.605500,3630
381.606000,3631
381.606500,3628
381.607000,3630
381.607500,3629
381.608000,2476
381.608500,0
381.609000,0
381.609500,0
381.610000,0
381.610500,0
381.611000,0
381.611500,0
381.612000,0
381.612500,0
381.613000,0
381.613500,0
381.614000,0
381.614500,0
381.615000,0
381.615500,0
381.616000,0
381.616500,0
381.617000,0
381.617500,0
381.618000,1152
381.618500,3629
381.619000,3629
381.619500,3629
381.620000,3630
381.620500,3630
381.621000,3631
381.621500,3627
381.622000,3628
381.622500,3629
381.623000,3628
381.623500,3629
381.624000,3628
381.624500,3628
381.625000,3634
381.625500,3629
381.626000,3630
381.626500,3628
381.627000,3629
381.627500,3629
381.628000,888
381.628500,0
381.629000,0
381.629500,0
381.630000,0
381.630500,0
381.631000,0
381.631500,0
381.632000,0
381.632500,0
381.633000,0
381.633500,0
381.634000,0
381.634500,0
381.635000,0
381.635500,0
381.636000,0
381.636500,0
381.637000,0
381.637500,0
381.638000,1558
381.638500,3629
381.639000,3629
381.639500,3628
381.640000,3630
381.640500,3630
381.641000,3631
381.641500,3628
381.642000,3630
381.642500,3628
381.643000,3628
381.643500,3630
381.644000,3628
381.644500,3628
381.645000,3633
381.645500,3630
381.646000,3630
381.646500,3628
381.647000,3630
381.647500,3628
381.648000,2679
381.648500,0
381.649000,0
381.649500,0
381.650000,0
381.650500,0
381.651000,0
381.651500,0
381.652000,0
381.652500,0
381.653000,0
381.653500,0
381.654000,0
381.654500,0
