# Subject: S01
# Trial: fatigue
# Notes: 
# Muscles: Ch1
# fs=2000 Hz, nch=1, vref=3.3 V
t_s,ch1_code
97.860000,1791
97.860500,1787
97.861000,1805
97.861500,1793
97.862000,1790
97.862500,1801
97.863000,1805
97.863500,1793
97.864000,1796
97.864500,1810
97.865000,1800
97.865500,1793
97.866000,1808
97.866500,1785
97.867000,1788
97.867500,1795
97.868000,1798
97.868500,1783
97.869000,1777
97.869500,1796
97.870000,1792
97.870500,1787
97.871000,1801
97.871500,1806
97.872000,1792
97.872500,1798
97.873000,1803
97.873500,1797
97.874000,1792
97.874500,1807
97.875000,1791
97.875500,1794
97.876000,1810
97.876500,1812
97.877000,1792
97.877500,1789
97.878000,1807
97.878500,1800
97.879000,1791
97.879500,1806
97.880000,1813
97.880500,1794
97.881000,1791
97.881500,1803
97.882000,1791
97.882500,1786
97.883000,1802
97.883500,1808
97.884000,1791
97.884500,1806
97.885000,1817
97.885500,1803
97.886000,1797
97.886500,1808
97.887000,1802
97.887500,1795
97.888000,1804
97.888500,1806
97.889000,1787
97.889500,1796
97.890000,1799
97.890500,1782
97.891000,1778
97.891500,1787
97.892000,1791
97.892500,1777
97.893000,1795
97.893500,1808
97.894000,1800
97.894500,1802
97.895000,1819
97.895500,1802
97.896000,1800
97.896500,1807
97.897000,1812
97.897500,1798
97.898000,1790
97.898500,1798
97.899000,1788
97.899500,1777
97.900000,1797
97.900500,1810
97.901000,1802
97.901500,1823
97.902000,1816
97.902500,1798
97.903000,1789
97.903500,1802
97.904000,1807
97.904500,1794
97.905000,1803
97.905500,1805
97.906000,1795
97.906500,1789
97.907000,1806
97.907500,1799
97.908000,1794
97.908500,1803
97.909000,1810
97.909500,1797
97.910000,1791
97.910500,1807
97.911000,1797
97.911500,1791
97.912000,1799
97.912500,1804
97.913000,1790
97.913500,1794
97.914000,1804
97.914500,1796
97.915000,1797
97.915500,1808
97.916000,1815
97.916500,1788
97.917000,1807
97.917500,1807
97.918000,1797
97.918500,1792
97.919000,1809
97.919500,1802
97.920000,1804
97.920500,1811
97.921000,1818
97.921500,1791
97.922000,1804
97.922500,1798
97.923000,1786
97.923500,1785
97.924000,1801
97.924500,1805
97.925000,1788
97.925500,1797
97.926000,1800
97.926500,1786
97.927000,1786
97.927500,1801
97.928000,1782
97.928500,1786
97.929000,1798
97.929500,1801
97.930000,1788
97.930500,1783
97.931000,1801
97.931500,1793
97.932000,1793
97.932500,1802
97.933000,1809
97.933500,1801
97.934000,1819
97.934500,1813
97.935000,1804
97.935500,1797
97.936000,1810
97.936500,1814
97.937000,1797
97.937500,1810
97.938000,1819
97.938500,1808
97.939000,1800
97.939500,1823
97.940000,1823
97.940500,1805
97.941000,1812
97.941500,1813
97.942000,1795
97.942500,1782
97.943000,1794
97.943500,1793
97.944000,1791
97.944500,1801
97.945000,1810
97.945500,1793
97.946000,1796
97.946500,1795
97.947000,1778
97.947500,1770
97.948000,1791
97.948500,1779
97.949000,1782
97.949500,1794
97.950000,1811
97.950500,1790
97.951000,1786
97.951500,1802
97.952000,1790
97.952500,1789
97.953000,1801
97.953500,1813
97.954000,1798
97.954500,1821
97.955000,1811
97.955500,1798
97.956000,1793
97.956500,1808
97.957000,1814
97.957500,1790
97.958000,1790
97.958500,1795
97.959000,1783
97.959500,1779
97.960000,1797
97.960500,1794
97.961000,1788
97.961500,1799
97.962000,1806
97.962500,1794
97.963000,1787
97.963500,1806
97.964000,1796
97.964500,1787
97.965000,1803
97.965500,1813
97.966000,1798
97.966500,1815
97.967000,1812
97.967500,1803
97.968000,1796
97.968500,1808
97.969000,1813
97.969500,1797
97.970000,1812
97.970500,1817
97.971000,1808
97.971500,1801
97.972000,1817
97.972500,1810
97.973000,1801
97.973500,1807
97.974000,1810
97.974500,1784
97.975000,1775
97.975500,1793
97.976000,1783
97.976500,1779
97.977000,1797
97.977500,1804
97.978000,1787
97.978500,1797
97.979000,1806
97.979500,1796
97.980000,1793
97.980500,1813
97.981000,1818
97.981500,1792
97.982000,1807
97.982500,1810
97.983000,1799
97.983500,1797
97.984000,1812
97.984500,1810
97.985000,1807
97.985500,1833
97.986000,1839
97.986500,1827
97.987000,1825
97.987500,1833
97.988000,1822
97.988500,1818
97.989000,1845
97.989500,1853
97.990000,1841
97.990500,1849
97.991000,1847
97.991500,1820
97.992000,1802
97.992500,1807
97.993000,1778
97.993500,1758
97.994000,1756
97.994500,1747
97.995000,1726
97.995500,1730
97.996000,1753
97.996500,1752
97.997000,1754
97.997500,1773
97.998000,1785
97.998500,1771
97.999000,1791
97.999500,1790
98.000000,1783
98.000500,1779
98.001000,1794
98.001500,1800
98.002000,1787
98.002500,1803
98.003000,1806
98.003500,1796
98.004000,1788
98.004500,1803
98.005000,1795
98.005500,1787
98.006000,1795
98.006500,1801
98.007000,1785
98.007500,1775
98.008000,1788
98.008500,1785
98.009000,1781
98.009500,1795
98.010000,1806
98.010500,1791
98.011000,1801
98.011500,1808
98.012000,1799
98.012500,1798
98.013000,1816
98.013500,1823
98.014000,1808
98.014500,1814
98.015000,1824
98.015500,1806
98.016000,1798
98.016500,1812
98.017000,1793
98.017500,1796
98.018000,1810
98.018500,1813
98.019000,1801
98.019500,1793
98.020000,1808
98.020500,1796
98.021000,1788
98.021500,1797
98.022000,1803
98.022500,1790
98.023000,1787
98.023500,1811
98.024000,1810
98.024500,1802
98.025000,1818
98.025500,1823
98.026000,1806
98.026500,1809
98.027000,1816
98.027500,1806
98.028000,1797
98.028500,1810
98.029000,1797
98.029500,1795
98.030000,1811
98.030500,1806
98.031000,1784
98.031500,1768
98.032000,1778
98.032500,1769
98.033000,1760
98.033500,1775
98.034000,1787
98.034500,1776
98.035000,1795
98.035500,1801
98.036000,1790
98.036500,1781
98.037000,1801
98.037500,1806
98.038000,1794
98.038500,1806
98.039000,1815
98.039500,1806
98.040000,1799
98.040500,1815
98.041000,1808
98.041500,1799
98.042000,1812
98.042500,1814
98.043000,1797
98.043500,1817
98.044000,1809
98.044500,1796
98.045000,1789
98.045500,1799
98.046000,1803
98.046500,1780
98.047000,1792
98.047500,1795
98.048000,1785
98.048500,1780
98.049000,1800
98.049500,1793
98.050000,1792
98.050500,1808
98.051000,1814
98.051500,1799
98.052000,1798
98.052500,1811
98.053000,1801
98.053500,1797
98.054000,1813
98.054500,1816
98.055000,1800
98.055500,1809
98.056000,1802
98.056500,1787
98.057000,1786
98.057500,1800
98.058000,1807
98.058500,1791
98.059000,1802
98.059500,1805
98.060000,1792
98.060500,1782
98.061000,1803
98.061500,1793
98.062000,1790
98.062500,1799
98.063000,1801
98.063500,1795
98.064000,1811
98.064500,1823
98.065000,1822
98.065500,1813
98.066000,1829
98.066500,1838
98.067000,1825
98.067500,1832
98.068000,1833
98.068500,1816
98.069000,1805
98.069500,1811
98.070000,1802
98.070500,1791
98.071000,1800
98.071500,1794
98.072000,1772
98.072500,1762
98.073000,1782
98.073500,1779
98.074000,1773
98.074500,1778
98.075000,1781
98.075500,1771
98.076000,1793
98.076500,1802
98.077000,1793
98.077500,1791
98.078000,1812
98.078500,1809
98.079000,1800
98.079500,1813
98.080000,1831
98.080500,1815
98.081000,1809
98.081500,1826
98.082000,1817
98.082500,1805
98.083000,1810
98.083500,1814
98.084000,1801
98.084500,1818
98.085000,1807
98.085500,1791
98.086000,1779
98.086500,1789
98.087000,1794
98.087500,1774
98.088000,1785
98.088500,1785
98.089000,1769
98.089500,1763
98.090000,1786
98.090500,1767
98.091000,1771
98.091500,1786
98.092000,1791
98.092500,1782
98.093000,1775
98.093500,1794
98.094000,1789
98.094500,1784
98.095000,1795
98.095500,1807
98.096000,1787
98.096500,1790
98.097000,1798
98.097500,1790
98.098000,1789
98.098500,1808
98.099000,1815
98.099500,1801
98.100000,1816
98.100500,1811
98.101000,1795
98.101500,1790
98.102000,1811
98.102500,1808
98.103000,1810
98.103500,1823
98.104000,1823
98.104500,1805
98.105000,1800
98.105500,1814
98.106000,1810
98.106500,1801
98.107000,1815
98.107500,1822
98.108000,1806
98.108500,1824
98.109000,1809
98.109500,1801
98.110000,1794
98.110500,1804
98.111000,1808
98.111500,1785
98.112000,1791
98.112500,1795
98.113000,1780
98.113500,1782
98.114000,1797
98.114500,1797
98.115000,1790
98.115500,1804
98.116000,1816
98.116500,1796
98.117000,1783
98.117500,1800
98.118000,1789
98.118500,1790
98.119000,1808
98.119500,1819
98.120000,1808
98.120500,1813
98.121000,1818
98.121500,1799
98.122000,1789
98.122500,1798
98.123000,1800
98.123500,1783
98.124000,1799
98.124500,1801
98.125000,1791
98.125500,1784
98.126000,1801
98.126500,1795
98.127000,1787
98.127500,1800
98.128000,1813
98.128500,1802
98.129000,1802
98.129500,1820
98.130000,1809
98.130500,1807
98.131000,1814
98.131500,1819
98.132000,1800
98.132500,1796
98.133000,1810
98.133500,1798
98.134000,1791
98.134500,1801
98.135000,1806
98.135500,1775
98.136000,1783
98.136500,1779
98.137000,1762
98.137500,1757
98.138000,1779
98.138500,1778
98.139000,1771
98.139500,1788
98.140000,1799
98.140500,1784
98.141000,1787
98.141500,1812
98.142000,1807
98.142500,1801
98.143000,1816
98.143500,1824
98.144000,1803
98.144500,1805
98.145000,1821
98.145500,1810
98.146000,1816
98.146500,1830
98.147000,1830
98.147500,1810
98.148000,1813
98.148500,1817
98.149000,1797
98.149500,1782
98.150000,1792
98.150500,1777
98.151000,1778
98.151500,1789
98.152000,1795
98.152500,1784
98.153000,1783
98.153500,1801
98.154000,1795
98.154500,1802
98.155000,1820
98.155500,1830
98.156000,1814
98.156500,1817
98.157000,1819
98.157500,1802
98.158000,1788
98.158500,1803
98.159000,1804
98.159500,1786
98.160000,1803
98.160500,1807
98.161000,1790
98.161500,1775
98.162000,1785
98.162500,1771
98.163000,1762
98.163500,1775
98.164000,1785
98.164500,1774
98.165000,1773
98.165500,1794
98.166000,1786
98.166500,1781
98.167000,1790
98.167500,1797
98.168000,1782
98.168500,1796
98.169000,1806
98.169500,1796
98.170000,1792
98.170500,1808
98.171000,1793
98.171500,1800
98.172000,1815
98.172500,1818
98.173000,1807
98.173500,1804
98.174000,1825
98.174500,1815
98.175000,1815
98.175500,1822
98.176000,1821
98.176500,1799
98.177000,1797
98.177500,1814
98.178000,1799
98.178500,1797
98.179000,1819
98.179500,1823
98.180000,1800
98.180500,1808
98.181000,1811
98.181500,1802
98.182000,1797
98.182500,1807
98.183000,1787
98.183500,1776
98.184000,1788
98.184500,1799
98.185000,1799
98.185500,1807
98.186000,1843
98.186500,1845
98.187000,1844
98.187500,1857
98.188000,1855
98.188500,1832
98.189000,1833
98.189500,1825
98.190000,1809
98.190500,1787
98.191000,1790
98.191500,1766
98.192000,1756
98.192500,1763
98.193000,1767
98.193500,1751
98.194000,1744
98.194500,1766
98.195000,1762
98.195500,1762
98.196000,1776
98.196500,1784
98.197000,1768
98.197500,1786
98.198000,1789
98.198500,1781
98.199000,1778
98.199500,1791
98.200000,1801
98.200500,1783
98.201000,1796
98.201500,1793
98.202000,1782
98.202500,1775
98.203000,1790
98.203500,1774
98.204000,1777
98.204500,1788
98.205000,1802
98.205500,1784
98.206000,1782
98.206500,1800
98.207000,1798
98.207500,1799
98.208000,1816
98.208500,1825
98.209000,1813
98.209500,1829
98.210000,1826
98.210500,1811
98.211000,1803
98.211500,1815
98.212000,1819
98.212500,1801
98.213000,1803
98.213500,1809
98.214000,1797
98.214500,1785
98.215000,1802
98.215500,1782
98.216000,1773
98.216500,1784
98.217000,1794
98.217500,1783
98.218000,1783
98.218500,1798
98.219000,1793
98.219500,1789
98.220000,1808
98.220500,1814
98.221000,1797
98.221500,1815
98.222000,1822
98.222500,1818
98.223000,1813
98.223500,1833
98.224000,1831
98.224500,1815
98.225000,1823
98.225500,1832
98.226000,1819
98.226500,1801
98.227000,1814
98.227500,1810
98.228000,1808
98.228500,1826
98.229000,1835
98.229500,1823
98.230000,1813
98.230500,1821
98.231000,1809
98.231500,1798
98.232000,1808
98.232500,1809
98.233000,1784
98.233500,1793
98.234000,1784
98.234500,1762
98.235000,1753
98.235500,1756
98.236000,1755
98.236500,1732
98.237000,1743
98.237500,1759
98.238000,1753
98.238500,1761
98.239000,1786
98.239500,1787
98.240000,1781
98.240500,1795
98.241000,1804
98.241500,1795
98.242000,1789
98.242500,1808
98.243000,1797
98.243500,1792
98.244000,1803
98.244500,1807
98.245000,1793
98.245500,1789
98.246000,1801
98.246500,1790
98.247000,1787
98.247500,1803
98.248000,1808
98.248500,1789
98.249000,1800
98.249500,1804
98.250000,1798
98.250500,1793
98.251000,1807
98.251500,1801
98.252000,1795
98.252500,1805
98.253000,1809
98.253500,1799
98.254000,1803
98.254500,1813
98.255000,1803
98.255500,1797
98.256000,1816
98.256500,1827
98.257000,1807
98.257500,1820
98.258000,1821
98.258500,1810
98.259000,1803
98.259500,1811
98.260000,1789
98.260500,1790
98.261000,1801
98.261500,1803
98.262000,1793
98.262500,1791
98.263000,1809
98.263500,1804
98.264000,1802
98.264500,1813
98.265000,1823
98.265500,1821
98.266000,1832
98.266500,1854
98.267000,1844
98.267500,1833
98.268000,1845
98.268500,1845
98.269000,1821
98.269500,1822
98.270000,1815
98.270500,1789
98.271000,1773
98.271500,1776
98.272000,1746
98.272500,1745
98.273000,1757
98.273500,1758
98.274000,1747
98.274500,1742
98.275000,1765
98.275500,1750
98.276000,1751
98.276500,1770
98.277000,1786
98.277500,1771
98.278000,1787
98.278500,1784
98.279000,1773
98.279500,1768
98.280000,1791
98.280500,1792
98.281000,1781
98.281500,1786
98.282000,1790
98.282500,1778
98.283000,1776
98.283500,1793
98.284000,1783
98.284500,1783
98.285000,1801
98.285500,1809
98.286000,1795
98.286500,1790
98.287000,1808
98.287500,1805
98.288000,1802
98.288500,1816
98.289000,1826
98.289500,1813
98.290000,1828
98.290500,1835
98.291000,1827
98.291500,1815
98.292000,1831
98.292500,1834
98.293000,1816
98.293500,1825
98.294000,1831
98.294500,1814
98.295000,1803
98.295500,1821
98.296000,1811
98.296500,1809
98.297000,1819
98.297500,1823
98.298000,1806
98.298500,1802
98.299000,1819
98.299500,1814
98.300000,1813
98.300500,1830
98.301000,1826
98.301500,1802
98.302000,1818
98.302500,1814
98.303000,1802
98.303500,1794
98.304000,1806
98.304500,1814
98.305000,1806
98.305500,1814
98.306000,1810
98.306500,1786
98.307000,1775
98.307500,1787
98.308000,1775
98.308500,1771
98.309000,1776
98.309500,1775
98.310000,1759
98.310500,1752
98.311000,1768
98.311500,1759
98.312000,1751
98.312500,1763
98.313000,1773
98.313500,1762
98.314000,1786
98.314500,1793
98.315000,1799
98.315500,1813
98.316000,1837
98.316500,1853
98.317000,1836
98.317500,1848
98.318000,1849
98.318500,1829
98.319000,1821
98.319500,1835
98.320000,1805
98.320500,1812
98.321000,1813
98.321500,1809
98.322000,1781
98.322500,1762
98.323000,1770
98.323500,1754
98.324000,1742
98.324500,1768
98.325000,1780
98.325500,1772
98.326000,1797
98.326500,1791
98.327000,1782
98.327500,1778
98.328000,1789
98.328500,1794
98.329000,1780
98.329500,1787
98.330000,1793
98.330500,1780
98.331000,1774
98.331500,1789
98.332000,1779
98.332500,1774
98.333000,1783
98.333500,1791
98.334000,1782
98.334500,1776
98.335000,1791
98.335500,1785
98.336000,1784
98.336500,1798
98.337000,1809
98.337500,1795
98.338000,1789
98.338500,1808
98.339000,1796
98.339500,1791
98.340000,1805
98.340500,1811
98.341000,1793
98.341500,1805
98.342000,1814
98.342500,1804
98.343000,1797
98.343500,1811
98.344000,1801
98.344500,1803
98.345000,1815
98.345500,1821
98.346000,1802
98.346500,1793
98.347000,1811
98.347500,1805
98.348000,1798
98.348500,1812
98.349000,1822
98.349500,1812
98.350000,1837
98.350500,1828
98.351000,1815
98.351500,1808
98.352000,1818
98.352500,1818
98.353000,1799
98.353500,1810
98.354000,1808
98.354500,1786
98.355000,1771
98.355500,1778
98.356000,1760
98.356500,1749
98.357000,1770
98.357500,1797
98.358000,1803
98.358500,1825
98.359000,1834
98.359500,1829
98.360000,1829
98.360500,1840
98.361000,1841
98.361500,1813
98.362000,1817
98.362500,1815
98.363000,1798
98.363500,1790
98.364000,1787
98.364500,1761
98.365000,1747
98.365500,1760
98.366000,1767
98.366500,1753
98.367000,1754
98.367500,1774
98.368000,1771
98.368500,1769
98.369000,1787
98.369500,1798
98.370000,1789
98.370500,1795
98.371000,1805
98.371500,1798
98.372000,1801
98.372500,1818
98.373000,1825
98.373500,1811
98.374000,1814
98.374500,1814
98.375000,1798
98.375500,1792
98.376000,1806
98.376500,1793
98.377000,1787
98.377500,1799
98.378000,1804
98.378500,1793
98.379000,1814
98.379500,1805
98.380000,1795
98.380500,1784
98.381000,1799
98.381500,1802
98.382000,1786
98.382500,1805
98.383000,1817
98.383500,1815
98.384000,1812
98.384500,1829
98.385000,1822
98.385500,1817
98.386000,1827
98.386500,1829
98.387000,1812
98.387500,1831
98.388000,1824
98.388500,1807
98.389000,1792
98.389500,1793
98.390000,1798
98.390500,1777
98.391000,1788
98.391500,1794
98.392000,1776
98.392500,1769
98.393000,1776
98.393500,1774
98.394000,1770
98.394500,1783
98.395000,1795
98.395500,1786
98.396000,1781
98.396500,1803
98.397000,1805
98.397500,1805
98.398000,1827
98.398500,1839
98.399000,1832
98.399500,1840
98.400000,1852
98.400500,1836
98.401000,1819
98.401500,1824
98.402000,1825
98.402500,1804
98.403000,1811
98.403500,1807
98.404000,1784
98.404500,1766
98.405000,1765
98.405500,1750
98.406000,1741
98.406500,1757
98.407000,1770
98.407500,1759
98.408000,1777
98.408500,1789
98.409000,1786
98.409500,1782
98.410000,1808
98.410500,1804
98.411000,1785
98.411500,1800
98.412000,1803
98.412500,1799
98.413000,1801
98.413500,1821
98.414000,1815
98.414500,1815
98.415000,1822
98.415500,1822
98.416000,1809
98.416500,1806
98.417000,1821
98.417500,1814
98.418000,1807
98.418500,1829
98.419000,1840
98.419500,1823
98.420000,1819
98.420500,1835
98.421000,1824
98.421500,1808
98.422000,1816
98.422500,1808
98.423000,1782
98.423500,1775
98.424000,1779
98.424500,1762
98.425000,1752
98.425500,1760
98.426000,1739
98.426500,1738
98.427000,1762
98.427500,1775
98.428000,1770
98.428500,1768
98.429000,1787
98.429500,1785
98.430000,1792
98.430500,1808
98.431000,1815
98.431500,1801
98.432000,1825
98.432500,1822
98.433000,1817
98.433500,1818
98.434000,1824
98.434500,1835
98.435000,1817
98.435500,1815
98.436000,1817
98.436500,1795
98.437000,1784
98.437500,1797
98.438000,1774
98.438500,1759
98.439000,1768
98.439500,1774
98.440000,1762
98.440500,1755
98.441000,1772
98.441500,1760
98.442000,1758
98.442500,1776
98.443000,1788
98.443500,1782
98.444000,1805
98.444500,1804
98.445000,1803
98.445500,1808
98.446000,1830
98.446500,1837
98.447000,1818
98.447500,1823
98.448000,1819
98.448500,1800
98.449000,1800
98.449500,1811
98.450000,1808
98.450500,1796
98.451000,1813
98.451500,1819
98.452000,1809
98.452500,1810
98.453000,1825
98.453500,1818
98.454000,1812
98.454500,1821
98.455000,1823
98.455500,1792
98.456000,1801
98.456500,1797
98.457000,1778
98.457500,1765
98.458000,1771
98.458500,1757
98.459000,1756
98.459500,1771
98.460000,1786
98.460500,1770
98.461000,1773
98.461500,1795
98.462000,1791
98.462500,1789
98.463000,1808
98.463500,1816
98.464000,1800
98.464500,1808
98.465000,1810
98.465500,1795
98.466000,1794
98.466500,1805
98.467000,1806
98.467500,1784
98.468000,1797
98.468500,1802
98.469000,1791
98.469500,1791
98.470000,1817
98.470500,1810
98.471000,1803
98.471500,1815
98.472000,1818
98.472500,1805
98.473000,1802
98.473500,1820
98.474000,1811
98.474500,1807
98.475000,1823
98.475500,1822
98.476000,1808
98.476500,1818
98.477000,1824
98.477500,1813
98.478000,1813
98.478500,1833
98.479000,1814
98.479500,1806
98.480000,1813
98.480500,1809
98.481000,1793
98.481500,1786
98.482000,1800
98.482500,1788
98.483000,1782
98.483500,1790
98.484000,1787
98.484500,1771
98.485000,1783
98.485500,1785
98.486000,1774
98.486500,1766
98.487000,1786
98.487500,1803
98.488000,1792
98.488500,1796
98.489000,1807
98.489500,1795
98.490000,1795
98.490500,1805
98.491000,1796
98.491500,1790
98.492000,1807
98.492500,1812
98.493000,1794
98.493500,1787
98.494000,1793
98.494500,1778
98.495000,1786
98.495500,1815
98.496000,1831
98.496500,1810
98.497000,1822
98.497500,1829
98.498000,1812
98.498500,1802
98.499000,1813
98.499500,1822
98.500000,1799
98.500500,1811
98.501000,1815
98.501500,1796
98.502000,1797
98.502500,1832
98.503000,1844
98.503500,1850
98.504000,1858
98.504500,1860
98.505000,1829
98.505500,1831
98.506000,1821
98.506500,1798
98.507000,1784
98.507500,1783
98.508000,1775
98.508500,1742
98.509000,1733
98.509500,1729
98.510000,1726
98.510500,1729
98.511000,1755
98.511500,1750
98.512000,1754
98.512500,1767
98.513000,1782
98.513500,1785
98.514000,1785
98.514500,1811
98.515000,1807
98.515500,1806
98.516000,1823
98.516500,1824
98.517000,1803
98.517500,1820
98.518000,1827
98.518500,1819
98.519000,1810
98.519500,1824
98.520000,1832
98.520500,1801
98.521000,1806
98.521500,1803
98.522000,1778
98.522500,1766
98.523000,1773
98.523500,1761
98.524000,1763
98.524500,1780
98.525000,1789
98.525500,1776
98.526000,1799
98.526500,1791
98.527000,1784
98.527500,1783
98.528000,1808
98.528500,1825
98.529000,1819
98.529500,1830
98.530000,1835
98.530500,1813
98.531000,1801
98.531500,1811
98.532000,1799
98.532500,1788
98.533000,1798
98.533500,1800
98.534000,1780
98.534500,1769
98.535000,1785
98.535500,1769
98.536000,1763
98.536500,1785
98.537000,1794
98.537500,1774
98.538000,1792
98.538500,1793
98.539000,1783
98.539500,1777
98.540000,1801
98.540500,1781
98.541000,1786
98.541500,1798
98.542000,1806
98.542500,1790
98.543000,1793
98.543500,1822
98.544000,1822
98.544500,1822
98.545000,1846
98.545500,1851
98.546000,1837
98.546500,1842
98.547000,1838
98.547500,1826
98.548000,1814
98.548500,1818
98.549000,1806
98.549500,1776
98.550000,1778
98.550500,1787
98.551000,1777
98.551500,1768
98.552000,1786
98.552500,1778
98.553000,1775
98.553500,1791
98.554000,1799
98.554500,1785
98.555000,1800
98.555500,1805
98.556000,1798
98.556500,1792
98.557000,1811
98.557500,1814
98.558000,1793
98.558500,1799
98.559000,1797
98.559500,1786
98.560000,1782
98.560500,1794
98.561000,1793
98.561500,1783
98.562000,1800
98.562500,1807
98.563000,1794
98.563500,1790
98.564000,1808
98.564500,1803
98.565000,1800
98.565500,1814
98.566000,1817
98.566500,1798
98.567000,1802
98.567500,1821
98.568000,1822
98.568500,1824
98.569000,1842
98.569500,1848
98.570000,1823
98.570500,1831
98.571000,1827
98.571500,1802
98.572000,1789
98.572500,1805
98.573000,1799
98.573500,1794
98.574000,1789
98.574500,1787
98.575000,1770
98.575500,1790
98.576000,1783
98.576500,1776
98.577000,1772
98.577500,1789
98.578000,1797
98.578500,1784
98.579000,1786
98.579500,1790
98.580000,1785
98.580500,1787
98.581000,1815
98.581500,1816
98.582000,1811
98.582500,1830
98.583000,1841
98.583500,1827
98.584000,1813
98.584500,1823
98.585000,1813
98.585500,1806
98.586000,1809
98.586500,1803
98.587000,1778
98.587500,1773
98.588000,1775
98.588500,1755
98.589000,1743
98.589500,1760
98.590000,1776
98.590500,1764
98.591000,1773
98.591500,1777
98.592000,1771
98.592500,1767
98.593000,1782
98.593500,1781
98.594000,1775
98.594500,1790
98.595000,1799
98.595500,1789
98.596000,1788
98.596500,1811
98.597000,1804
98.597500,1803
98.598000,1823
98.598500,1839
98.599000,1830
98.599500,1843
98.600000,1854
98.600500,1847
98.601000,1843
98.601500,1857
98.602000,1855
98.602500,1825
98.603000,1828
98.603500,1824
98.604000,1805
98.604500,1790
98.605000,1803
98.605500,1782
98.606000,1759
98.606500,1755
98.607000,1758
98.607500,1745
98.608000,1747
98.608500,1773
98.609000,1769
98.609500,1762
98.610000,1780
98.610500,1775
98.611000,1762
98.611500,1762
98.612000,1788
98.612500,1793
98.613000,1801
98.613500,1827
98.614000,1839
98.614500,1819
98.615000,1828
98.615500,1837
98.616000,1822
98.616500,1818
98.617000,1838
98.617500,1830
98.618000,1823
98.618500,1828
98.619000,1826
98.619500,1815
98.620000,1828
98.620500,1862
98.621000,1870
98.621500,1865
98.622000,1870
98.622500,1865
98.623000,1835
98.623500,1827
98.624000,1828
98.624500,1809
98.625000,1796
98.625500,1794
98.626000,1759
98.626500,1731
98.627000,1736
98.627500,1740
98.628000,1721
98.628500,1713
98.629000,1723
98.629500,1719
98.630000,1728
98.630500,1751
98.631000,1767
98.631500,1756
98.632000,1781
98.632500,1779
98.633000,1772
98.633500,1771
98.634000,1784
98.634500,1790
98.635000,1782
98.635500,1794
98.636000,1809
98.636500,1797
98.637000,1793
98.637500,1814
98.638000,1811
98.638500,1807
98.639000,1826
98.639500,1842
98.640000,1839
98.640500,1836
98.641000,1861
98.641500,1849
98.642000,1837
98.642500,1843
98.643000,1840
98.643500,1820
98.644000,1808
98.644500,1801
98.645000,1776
98.645500,1761
98.646000,1769
98.646500,1770
98.647000,1749
98.647500,1763
98.648000,1768
98.648500,1759
98.649000,1759
98.649500,1782
98.650000,1787
98.650500,1776
98.651000,1788
98.651500,1790
98.652000,1784
98.652500,1781
98.653000,1800
98.653500,1798
98.654000,1800
98.654500,1824
98.655000,1838
98.655500,1825
98.656000,1825
98.656500,1831
98.657000,1814
98.657500,1806
98.658000,1820
98.658500,1826
98.659000,1803
98.659500,1809
98.660000,1814
98.660500,1804
98.661000,1809
98.661500,1829
98.662000,1823
98.662500,1817
98.663000,1823
98.663500,1828
98.664000,1809
98.664500,1811
98.665000,1801
98.665500,1775
98.666000,1763
98.666500,1772
98.667000,1769
98.667500,1749
98.668000,1752
98.668500,1764
98.669000,1765
98.669500,1771
98.670000,1804
98.670500,1803
98.671000,1806
98.671500,1825
98.672000,1836
98.672500,1823
98.673000,1821
98.673500,1830
98.674000,1814
98.674500,1804
98.675000,1807
98.675500,1803
98.676000,1779
98.676500,1773
98.677000,1778
98.677500,1753
98.678000,1749
98.678500,1779
98.679000,1796
98.679500,1786
98.680000,1807
98.680500,1809
98.681000,1796
98.681500,1791
98.682000,1805
98.682500,1798
98.683000,1794
98.683500,1799
98.684000,1802
98.684500,1791
98.685000,1814
98.685500,1815
98.686000,1807
98.686500,1800
98.687000,1811
98.687500,1819
98.688000,1806
98.688500,1819
98.689000,1821
98.689500,1806
98.690000,1802
98.690500,1801
98.691000,1786
98.691500,1779
98.692000,1794
98.692500,1800
98.693000,1789
98.693500,1790
98.694000,1799
98.694500,1782
98.695000,1775
98.695500,1798
98.696000,1814
98.696500,1796
98.697000,1817
98.697500,1812
98.698000,1798
98.698500,1787
98.699000,1802
98.699500,1808
98.700000,1795
98.700500,1802
98.701000,1804
98.701500,1790
98.702000,1780
98.702500,1802
98.703000,1804
98.703500,1812
98.704000,1834
98.704500,1838
98.705000,1821
98.705500,1809
98.706000,1816
98.706500,1795
98.707000,1782
98.707500,1793
98.708000,1799
98.708500,1774
98.709000,1778
98.709500,1781
98.710000,1773
98.710500,1774
98.711000,1788
98.711500,1792
98.712000,1776
98.712500,1789
98.713000,1799
98.713500,1791
98.714000,1791
98.714500,1817
98.715000,1817
98.715500,1803
98.716000,1820
98.716500,1822
98.717000,1802
98.717500,1794
98.718000,1808
98.718500,1789
98.719000,1779
98.719500,1795
98.720000,1821
98.720500,1811
98.721000,1821
98.721500,1825
98.722000,1814
98.722500,1803
98.723000,1813
98.723500,1825
98.724000,1805
98.724500,1802
98.725000,1807
98.725500,1786
98.726000,1767
98.726500,1775
98.727000,1771
98.727500,1778
98.728000,1799
98.728500,1823
98.729000,1831
98.729500,1841
98.730000,1863
98.730500,1839
98.731000,1828
98.731500,1833
98.732000,1837
98.732500,1813
98.733000,1822
98.733500,1810
98.734000,1792
98.734500,1773
98.735000,1772
98.735500,1766
98.736000,1743
98.736500,1761
98.737000,1770
98.737500,1754
98.738000,1747
98.738500,1765
98.739000,1762
98.739500,1752
98.740000,1773
98.740500,1778
98.741000,1771
98.741500,1771
98.742000,1793
98.742500,1784
98.743000,1787
98.743500,1808
98.744000,1816
98.744500,1801
98.745000,1814
98.745500,1818
98.746000,1803
98.746500,1796
98.747000,1811
98.747500,1799
98.748000,1801
98.748500,1813
98.749000,1822
98.749500,1812
98.750000,1800
98.750500,1811
98.751000,1800
98.751500,1789
98.752000,1806
98.752500,1821
98.753000,1819
98.753500,1832
98.754000,1835
98.754500,1823
98.755000,1823
98.755500,1839
98.756000,1845
98.756500,1822
98.757000,1823
98.757500,1810
98.758000,1787
98.758500,1770
98.759000,1784
98.759500,1777
98.760000,1771
98.760500,1781
98.761000,1795
98.761500,1785
98.762000,1780
98.762500,1795
98.763000,1777
98.763500,1767
98.764000,1770
98.764500,1768
98.765000,1747
98.765500,1766
98.766000,1783
98.766500,1775
98.767000,1776
98.767500,1790
98.768000,1777
98.768500,1774
98.769000,1786
98.769500,1798
98.770000,1791
98.770500,1782
98.771000,1805
98.771500,1800
98.772000,1797
98.772500,1810
98.773000,1816
98.773500,1805
98.774000,1805
98.774500,1819
98.775000,1808
98.775500,1806
98.776000,1825
98.776500,1831
98.777000,1808
98.777500,1814
98.778000,1821
98.778500,1805
98.779000,1804
98.779500,1820
98.780000,1831
98.780500,1824
98.781000,1836
98.781500,1835
98.782000,1818
98.782500,1809
98.783000,1819
98.783500,1805
98.784000,1791
98.784500,1797
98.785000,1792
98.785500,1765
98.786000,1761
98.786500,1763
98.787000,1760
98.787500,1762
98.788000,1780
98.788500,1768
98.789000,1773
98.789500,1788
98.790000,1800
98.790500,1787
98.791000,1787
98.791500,1807
98.792000,1801
98.792500,1799
98.793000,1816
98.793500,1827
98.794000,1818
98.794500,1831
98.795000,1845
98.795500,1835
98.796000,1834
98.796500,1847
98.797000,1849
98.797500,1832
98.798000,1840
98.798500,1841
98.799000,1820
98.799500,1798
98.800000,1806
98.800500,1781
98.801000,1757
98.801500,1759
98.802000,1762
98.802500,1744
98.803000,1739
98.803500,1761
98.804000,1764
98.804500,1764
98.805000,1778
98.805500,1784
98.806000,1773
98.806500,1787
98.807000,1785
98.807500,1771
98.808000,1766
98.808500,1789
98.809000,1808
98.809500,1802
98.810000,1829
98.810500,1832
98.811000,1818
98.811500,1813
98.812000,1827
98.812500,1816
98.813000,1806
98.813500,1817
98.814000,1816
98.814500,1795
98.815000,1789
98.815500,1811
98.816000,1804
98.816500,1800
98.817000,1824
98.817500,1830
98.818000,1813
98.818500,1821
98.819000,1823
98.819500,1805
98.820000,1795
98.820500,1791
98.821000,1767
98.821500,1767
98.822000,1780
98.822500,1787
98.823000,1776
98.823500,1780
98.824000,1803
98.824500,1791
98.825000,1779
98.825500,1787
98.826000,1791
98.826500,1773
98.827000,1802
98.827500,1797
98.828000,1791
98.828500,1800
98.829000,1822
98.829500,1837
98.830000,1829
98.830500,1843
98.831000,1845
98.831500,1828
98.832000,1817
98.832500,1828
98.833000,1819
98.833500,1826
98.834000,1825
98.834500,1809
98.835000,1786
98.835500,1812
98.836000,1812
98.836500,1805
98.837000,1812
98.837500,1832
98.838000,1831
98.838500,1799
98.839000,1792
98.839500,1783
98.840000,1773
98.840500,1774
98.841000,1792
98.841500,1784
98.842000,1766
98.842500,1766
98.843000,1756
98.843500,1738
98.844000,1743
98.844500,1757
98.845000,1749
98.845500,1742
98.846000,1767
98.846500,1782
98.847000,1779
98.847500,1803
98.848000,1809
98.848500,1805
98.849000,1808
98.849500,1828
98.850000,1822
98.850500,1815
98.851000,1823
98.851500,1822
98.852000,1807
98.852500,1808
98.853000,1823
98.853500,1806
98.854000,1786
98.854500,1794
98.855000,1799
98.855500,1783
98.856000,1791
98.856500,1789
98.857000,1776
98.857500,1773
98.858000,1787
98.858500,1791
98.859000,1773
98.859500,1785
98.860000,1800
98.860500,1798
98.861000,1800
98.861500,1820
98.862000,1817
98.862500,1810
98.863000,1822
98.863500,1826
98.864000,1805
98.864500,1794
98.865000,1820
98.865500,1819
98.866000,1824
98.866500,1844
98.867000,1852
98.867500,1835
98.868000,1837
98.868500,1835
98.869000,1826
98.869500,1841
98.870000,1875
98.870500,1877
98.871000,1845
98.871500,1845
98.872000,1839
98.872500,1814
98.873000,1797
98.873500,1815
98.874000,1796
98.874500,1774
98.875000,1768
98.875500,1752
98.876000,1735
98.876500,1736
98.877000,1758
98.877500,1751
98.878000,1754
98.878500,1764
98.879000,1775
98.879500,1765
98.880000,1777
98.880500,1791
98.881000,1781
98.881500,1768
98.882000,1777
98.882500,1759
98.883000,1742
98.883500,1754
98.884000,1757
98.884500,1749
98.885000,1770
98.885500,1826
98.886000,1840
98.886500,1839
98.887000,1850
98.887500,1860
98.888000,1851
98.888500,1854
98.889000,1896
98.889500,1893
98.890000,1881
98.890500,1869
98.891000,1842
98.891500,1809
98.892000,1795
98.892500,1797
98.893000,1775
98.893500,1757
98.894000,1751
98.894500,1744
98.895000,1716
98.895500,1731
98.896000,1731
98.896500,1718
98.897000,1718
98.897500,1740
98.898000,1739
98.898500,1740
98.899000,1758
98.899500,1772
98.900000,1764
98.900500,1760
98.901000,1786
98.901500,1786
98.902000,1787
98.902500,1806
98.903000,1817
98.903500,1800
98.904000,1811
98.904500,1809
98.905000,1801
98.905500,1789
98.906000,1805
98.906500,1787
98.907000,1784
98.907500,1795
98.908000,1804
98.908500,1798
98.909000,1793
98.909500,1814
98.910000,1815
98.910500,1813
98.911000,1831
98.911500,1842
98.912000,1832
98.912500,1849
98.913000,1858
98.913500,1847
98.914000,1830
98.914500,1835
98.915000,1833
98.915500,1801
98.916000,1804
98.916500,1792
98.917000,1763
98.917500,1758
98.918000,1780
98.918500,1771
98.919000,1776
98.919500,1792
98.920000,1803
98.920500,1785
98.921000,1781
98.921500,1794
98.922000,1787
98.922500,1784
98.923000,1795
98.923500,1805
98.924000,1786
98.924500,1790
98.925000,1817
98.925500,1823
98.926000,1828
98.926500,1843
98.927000,1849
98.927500,1837
98.928000,1851
98.928500,1864
98.929000,1855
98.929500,1842
98.930000,1849
98.930500,1812
98.931000,1794
98.931500,1789
98.932000,1786
98.932500,1776
98.933000,1771
98.933500,1781
98.934000,1764
98.934500,1741
98.935000,1737
98.935500,1743
98.936000,1742
98.936500,1783
98.937000,1781
98.937500,1778
98.938000,1779
98.938500,1803
98.939000,1809
98.939500,1791
98.940000,1801
98.940500,1811
98.941000,1796
98.941500,1789
98.942000,1804
98.942500,1801
98.943000,1790
98.943500,1804
98.944000,1807
98.944500,1793
98.945000,1790
98.945500,1801
98.946000,1784
98.946500,1773
98.947000,1789
98.947500,1792
98.948000,1783
98.948500,1786
98.949000,1800
98.949500,1793
98.950000,1793
98.950500,1817
98.951000,1824
98.951500,1804
98.952000,1815
98.952500,1819
98.953000,1802
98.953500,1797
98.954000,1810
98.954500,1792
98.955000,1786
98.955500,1781
98.956000,1784
98.956500,1773
98.957000,1771
98.957500,1811
98.958000,1812
98.958500,1817
98.959000,1835
98.959500,1846
98.960000,1833
98.960500,1839
98.961000,1847
98.961500,1837
98.962000,1830
98.962500,1848
98.963000,1839
98.963500,1827
98.964000,1828
98.964500,1826
98.965000,1814
98.965500,1802
98.966000,1808
98.966500,1792
98.967000,1774
98.967500,1774
98.968000,1766
98.968500,1733
98.969000,1747
98.969500,1750
98.970000,1758
98.970500,1767
98.971000,1787
98.971500,1790
98.972000,1774
98.972500,1776
98.973000,1781
98.973500,1774
98.974000,1785
98.974500,1822
98.975000,1826
98.975500,1813
98.976000,1826
98.976500,1828
98.977000,1802
98.977500,1784
98.978000,1795
98.978500,1780
98.979000,1775
98.979500,1793
98.980000,1805
98.980500,1791
98.981000,1794
98.981500,1803
98.982000,1801
98.982500,1799
98.983000,1815
98.983500,1815
98.984000,1790
98.984500,1795
98.985000,1794
98.985500,1779
98.986000,1774
98.986500,1785
98.987000,1776
98.987500,1777
98.988000,1795
98.988500,1813
98.989000,1802
98.989500,1795
98.990000,1809
98.990500,1799
98.991000,1806
98.991500,1830
98.992000,1849
98.992500,1842
98.993000,1856
98.993500,1853
98.994000,1830
98.994500,1815
98.995000,1826
98.995500,1807
98.996000,1799
98.996500,1787
98.997000,1776
98.997500,1751
98.998000,1748
98.998500,1776
98.999000,1778
98.999500,1774
99.000000,1787
99.000500,1783
99.001000,1765
99.001500,1792
99.002000,1803
99.002500,1807
99.003000,1811
99.003500,1831
99.004000,1838
99.004500,1818
99.005000,1835
99.005500,1842
99.006000,1840
99.006500,1842
99.007000,1853
99.007500,1823
99.008000,1808
99.008500,1809
99.009000,1809
99.009500,1794
99.010000,1785
99.010500,1789
99.011000,1766
99.011500,1734
99.012000,1726
99.012500,1726
99.013000,1724
99.013500,1758
99.014000,1777
99.014500,1793
99.015000,1803
99.015500,1814
99.016000,1818
99.016500,1794
99.017000,1794
99.017500,1797
99.018000,1783
99.018500,1779
99.019000,1794
99.019500,1785
99.020000,1770
99.020500,1781
99.021000,1796
99.021500,1790
99.022000,1790
99.022500,1810
99.023000,1805
99.023500,1802
99.024000,1813
99.024500,1814
99.025000,1799
99.025500,1795
99.026000,1808
99.026500,1794
99.027000,1801
99.027500,1819
99.028000,1832
99.028500,1819
99.029000,1851
99.029500,1878
99.030000,1895
99.030500,1906
99.031000,1918
99.031500,1895
99.032000,1870
99.032500,1842
99.033000,1821
99.033500,1787
99.034000,1793
99.034500,1792
99.035000,1776
99.035500,1743
99.036000,1746
99.036500,1745
99.037000,1720
99.037500,1731
99.038000,1728
99.038500,1721
99.039000,1726
99.039500,1757
99.040000,1762
99.040500,1770
99.041000,1782
99.041500,1784
99.042000,1777
99.042500,1772
99.043000,1789
99.043500,1781
99.044000,1774
99.044500,1796
99.045000,1806
99.045500,1798
99.046000,1814
99.046500,1816
99.047000,1814
99.047500,1818
99.048000,1840
99.048500,1846
99.049000,1828
99.049500,1830
99.050000,1828
99.050500,1798
99.051000,1785
99.051500,1794
99.052000,1786
99.052500,1760
99.053000,1757
99.053500,1758
99.054000,1759
99.054500,1762
99.055000,1793
99.055500,1787
99.056000,1786
99.056500,1798
99.057000,1802
99.057500,1786
99.058000,1813
99.058500,1811
99.059000,1804
99.059500,1804
99.060000,1826
99.060500,1832
99.061000,1811
99.061500,1809
99.062000,1815
99.062500,1801
99.063000,1790
99.063500,1802
99.064000,1790
99.064500,1787
99.065000,1809
99.065500,1816
99.066000,1800
99.066500,1792
99.067000,1803
99.067500,1789
99.068000,1781
99.068500,1794
99.069000,1805
99.069500,1802
99.070000,1837
99.070500,1832
99.071000,1824
99.071500,1831
99.072000,1847
99.072500,1847
99.073000,1834
99.073500,1850
99.074000,1859
99.074500,1840
99.075000,1833
99.075500,1853
99.076000,1838
99.076500,1837
99.077000,1859
99.077500,1862
99.078000,1844
99.078500,1837
99.079000,1843
99.079500,1822
99.080000,1789
99.080500,1783
99.081000,1775
99.081500,1743
99.082000,1726
99.082500,1733
99.083000,1726
99.083500,1726
99.084000,1731
99.084500,1735
99.085000,1725
99.085500,1724
99.086000,1737
99.086500,1726
99.087000,1730
99.087500,1756
99.088000,1769
99.088500,1760
99.089000,1783
99.089500,1796
99.090000,1791
99.090500,1804
99.091000,1839
99.091500,1846
99.092000,1854
99.092500,1875
99.093000,1886
99.093500,1872
99.094000,1872
99.094500,1866
99.095000,1843
99.095500,1814
99.096000,1806
99.096500,1796
99.097000,1763
99.097500,1767
99.098000,1782
99.098500,1770
99.099000,1758
99.099500,1769
99.100000,1756
99.100500,1750
99.101000,1782
99.101500,1817
99.102000,1816
99.102500,1812
99.103000,1829
99.103500,1819
99.104000,1811
99.104500,1809
99.105000,1816
99.105500,1804
99.106000,1794
99.106500,1807
99.107000,1794
99.107500,1780
99.108000,1787
99.108500,1786
99.109000,1771
99.109500,1786
99.110000,1798
99.110500,1778
99.111000,1767
99.111500,1774
99.112000,1753
99.112500,1750
99.113000,1770
99.113500,1797
99.114000,1797
99.114500,1803
99.115000,1839
99.115500,1837
99.116000,1834
99.116500,1848
99.117000,1854
99.117500,1832
99.118000,1834
99.118500,1816
99.119000,1785
99.119500,1755
99.120000,1762
99.120500,1774
99.121000,1765
99.121500,1795
99.122000,1799
99.122500,1776
99.123000,1763
99.123500,1784
99.124000,1786
99.124500,1782
99.125000,1791
99.125500,1794
99.126000,1775
99.126500,1760
99.127000,1773
99.127500,1770
99.128000,1771
99.128500,1791
99.129000,1804
99.129500,1797
99.130000,1802
99.130500,1808
99.131000,1796
99.131500,1787
99.132000,1802
99.132500,1810
99.133000,1788
99.133500,1795
99.134000,1804
99.134500,1786
99.135000,1775
99.135500,1790
99.136000,1789
99.136500,1785
99.137000,1810
99.137500,1827
99.138000,1826
99.138500,1834
99.139000,1856
99.139500,1850
99.140000,1843
99.140500,1845
99.141000,1843
99.141500,1818
99.142000,1817
99.142500,1803
99.143000,1782
99.143500,1774
99.144000,1786
99.144500,1786
99.145000,1768
99.145500,1773
99.146000,1791
99.146500,1785
99.147000,1780
99.147500,1794
99.148000,1788
99.148500,1780
99.149000,1791
99.149500,1799
99.150000,1793
99.150500,1780
99.151000,1798
99.151500,1796
99.152000,1794
99.152500,1810
99.153000,1815
99.153500,1801
99.154000,1810
99.154500,1831
99.155000,1865
99.155500,1906
99.156000,1950
99.156500,1950
99.157000,1917
99.157500,1907
99.158000,1894
99.158500,1852
99.159000,1814
99.159500,1803
99.160000,1781
99.160500,1756
99.161000,1758
99.161500,1764
99.162000,1759
99.162500,1771
99.163000,1801
99.163500,1797
99.164000,1781
99.164500,1771
99.165000,1749
99.165500,1693
99.166000,1692
99.166500,1670
99.167000,1662
99.167500,1675
99.168000,1716
99.168500,1754
99.169000,1770
99.169500,1795
99.170000,1810
99.170500,1791
99.171000,1785
99.171500,1800
99.172000,1794
99.172500,1796
99.173000,1818
99.173500,1829
99.174000,1822
99.174500,1829
99.175000,1851
99.175500,1839
99.176000,1831
99.176500,1843
99.177000,1846
99.177500,1830
99.178000,1833
99.178500,1812
99.179000,1787
99.179500,1775
99.180000,1798
99.180500,1797
99.181000,1777
99.181500,1785
99.182000,1785
99.182500,1770
99.183000,1751
99.183500,1760
99.184000,1744
99.184500,1754
99.185000,1773
99.185500,1786
99.186000,1777
99.186500,1771
99.187000,1785
99.187500,1777
99.188000,1777
99.188500,1795
99.189000,1800
99.189500,1787
99.190000,1790
99.190500,1813
99.191000,1817
99.191500,1814
99.192000,1833
99.192500,1835
99.193000,1820
99.193500,1834
99.194000,1840
99.194500,1841
99.195000,1838
99.195500,1849
99.196000,1844
99.196500,1809
99.197000,1810
99.197500,1814
99.198000,1795
99.198500,1784
99.199000,1793
99.199500,1775
99.200000,1747
99.200500,1755
99.201000,1764
99.201500,1765
99.202000,1787
99.202500,1819
99.203000,1809
99.203500,1806
99.204000,1819
99.204500,1829
99.205000,1816
99.205500,1837
99.206000,1837
99.206500,1822
99.207000,1804
99.207500,1809
99.208000,1806
99.208500,1785
99.209000,1798
99.209500,1804
99.210000,1779
99.210500,1757
99.211000,1764
99.211500,1759
99.212000,1756
99.212500,1777
99.213000,1789
99.213500,1779
99.214000,1784
99.214500,1819
99.215000,1818
99.215500,1825
99.216000,1848
99.216500,1856
99.217000,1854
99.217500,1870
99.218000,1873
99.218500,1853
99.219000,1838
99.219500,1843
99.220000,1828
99.220500,1791
99.221000,1782
99.221500,1773
99.222000,1750
99.222500,1741
99.223000,1749
99.223500,1744
99.224000,1751
99.224500,1777
99.225000,1785
99.225500,1783
99.226000,1786
99.226500,1805
99.227000,1800
99.227500,1789
99.228000,1798
99.228500,1798
99.229000,1777
99.229500,1785
99.230000,1789
99.230500,1782
99.231000,1774
99.231500,1787
99.232000,1791
99.232500,1769
99.233000,1768
99.233500,1764
99.234000,1753
99.234500,1763
99.235000,1798
99.235500,1801
99.236000,1815
99.236500,1835
99.237000,1840
99.237500,1827
99.238000,1849
99.238500,1887
99.239000,1892
99.239500,1895
99.240000,1901
99.240500,1894
99.241000,1859
99.241500,1849
99.242000,1826
99.242500,1786
99.243000,1763
99.243500,1760
99.244000,1740
99.244500,1705
99.245000,1727
99.245500,1770
99.246000,1786
99.246500,1797
99.247000,1816
99.247500,1794
99.248000,1782
99.248500,1788
99.249000,1788
99.249500,1759
99.250000,1738
99.250500,1744
99.251000,1745
99.251500,1748
99.252000,1771
99.252500,1779
99.253000,1766
99.253500,1765
99.254000,1785
99.254500,1778
99.255000,1775
99.255500,1795
99.256000,1810
99.256500,1803
99.257000,1828
99.257500,1840
99.258000,1834
99.258500,1832
99.259000,1855
99.259500,1860
99.260000,1850
99.260500,1856
99.261000,1847
99.261500,1820
99.262000,1799
99.262500,1798
99.263000,1769
99.263500,1757
99.264000,1762
99.264500,1759
99.265000,1749
99.265500,1752
99.266000,1780
99.266500,1779
99.267000,1779
99.267500,1798
99.268000,1807
99.268500,1793
99.269000,1802
99.269500,1806
99.270000,1789
99.270500,1781
99.271000,1791
99.271500,1772
99.272000,1781
99.272500,1796
99.273000,1814
99.273500,1811
99.274000,1820
99.274500,1853
99.275000,1854
99.275500,1841
99.276000,1856
99.276500,1860
99.277000,1839
99.277500,1827
99.278000,1848
99.278500,1838
99.279000,1821
99.279500,1827
99.280000,1865
99.280500,1858
99.281000,1860
99.281500,1849
99.282000,1817
99.282500,1789
99.283000,1784
99.283500,1758
99.284000,1728
99.284500,1739
99.285000,1747
99.285500,1733
99.286000,1719
99.286500,1733
99.287000,1732
99.287500,1731
99.288000,1751
99.288500,1766
99.289000,1763
99.289500,1765
99.290000,1795
99.290500,1805
99.291000,1822
99.291500,1850
99.292000,1864
99.292500,1847
99.293000,1844
99.293500,1844
99.294000,1814
99.294500,1798
99.295000,1799
99.295500,1781
99.296000,1743
99.296500,1749
99.297000,1759
99.297500,1751
99.298000,1752
99.298500,1778
99.299000,1779
99.299500,1776
99.300000,1795
99.300500,1796
99.301000,1782
99.301500,1774
99.302000,1791
99.302500,1782
99.303000,1776
99.303500,1795
99.304000,1798
99.304500,1787
99.305000,1809
99.305500,1816
99.306000,1809
99.306500,1807
99.307000,1823
99.307500,1810
99.308000,1811
99.308500,1817
99.309000,1817
99.309500,1797
99.310000,1792
99.310500,1803
99.311000,1791
99.311500,1777
99.312000,1793
99.312500,1803
99.313000,1795
99.313500,1805
99.314000,1826
99.314500,1810
99.315000,1807
99.315500,1824
99.316000,1836
99.316500,1819
99.317000,1841
99.317500,1851
99.318000,1850
99.318500,1845
99.319000,1855
99.319500,1830
99.320000,1818
99.320500,1818
99.321000,1809
99.321500,1773
99.322000,1748
99.322500,1752
99.323000,1738
99.323500,1730
99.324000,1757
99.324500,1769
99.325000,1767
99.325500,1774
99.326000,1792
99.326500,1779
99.327000,1774
99.327500,1786
99.328000,1790
99.328500,1778
99.329000,1809
99.329500,1835
99.330000,1834
99.330500,1833
99.331000,1844
99.331500,1831
99.332000,1813
99.332500,1821
99.333000,1828
99.333500,1811
99.334000,1793
99.334500,1793
99.335000,1767
99.335500,1756
99.336000,1781
99.336500,1798
99.337000,1783
99.337500,1790
99.338000,1803
99.338500,1788
99.339000,1771
99.339500,1770
99.340000,1781
99.340500,1767
99.341000,1789
99.341500,1795
99.342000,1798
99.342500,1805
99.343000,1828
99.343500,1817
99.344000,1800
99.344500,1812
99.345000,1831
99.345500,1815
99.346000,1812
99.346500,1827
99.347000,1820
99.347500,1802
99.348000,1803
99.348500,1804
99.349000,1787
99.349500,1786
99.350000,1794
99.350500,1785
99.351000,1773
99.351500,1772
99.352000,1768
99.352500,1750
99.353000,1771
99.353500,1787
99.354000,1782
99.354500,1782
99.355000,1807
99.355500,1795
99.356000,1790
99.356500,1809
99.357000,1823
99.357500,1821
99.358000,1823
99.358500,1846
99.359000,1834
99.359500,1823
99.360000,1842
99.360500,1859
99.361000,1871
99.361500,1913
99.362000,1934
99.362500,1909
99.363000,1878
99.363500,1869
99.364000,1858
99.364500,1830
99.365000,1815
99.365500,1785
99.366000,1743
99.366500,1691
99.367000,1675
99.367500,1659
99.368000,1664
99.368500,1705
99.369000,1746
99.369500,1751
99.370000,1759
99.370500,1792
99.371000,1790
99.371500,1785
99.372000,1809
99.372500,1821
99.373000,1808
99.373500,1813
99.374000,1832
99.374500,1827
99.375000,1815
99.375500,1819
99.376000,1812
99.376500,1779
99.377000,1780
99.377500,1770
99.378000,1749
99.378500,1738
99.379000,1752
99.379500,1746
99.380000,1746
99.380500,1757
99.381000,1772
99.381500,1768
99.382000,1804
99.382500,1823
99.383000,1837
99.383500,1844
99.384000,1867
99.384500,1872
99.385000,1859
99.385500,1862
99.386000,1860
99.386500,1832
99.387000,1805
99.387500,1795
99.388000,1763
99.388500,1737
99.389000,1731
99.389500,1749
99.390000,1750
99.390500,1789
99.391000,1789
99.391500,1778
99.392000,1781
99.392500,1794
99.393000,1801
99.393500,1784
99.394000,1799
99.394500,1814
99.395000,1801
99.395500,1798
99.396000,1810
99.396500,1785
99.397000,1775
99.397500,1795
99.398000,1809
99.398500,1798
99.399000,1793
99.399500,1813
99.400000,1809
99.400500,1807
99.401000,1820
99.401500,1818
99.402000,1799
99.402500,1814
99.403000,1817
99.403500,1819
99.404000,1835
99.404500,1856
99.405000,1867
99.405500,1848
99.406000,1870
99.406500,1883
99.407000,1875
99.407500,1875
99.408000,1885
99.408500,1858
99.409000,1819
99.409500,1795
99.410000,1774
99.410500,1743
99.411000,1726
99.411500,1735
99.412000,1715
99.412500,1695
99.413000,1705
99.413500,1710
99.414000,1706
99.414500,1746
99.415000,1773
99.415500,1768
99.416000,1765
99.416500,1781
99.417000,1783
99.417500,1768
99.418000,1785
99.418500,1798
99.419000,1786
99.419500,1786
99.420000,1808
99.420500,1805
99.421000,1803
99.421500,1819
99.422000,1830
99.422500,1823
99.423000,1822
99.423500,1849
99.424000,1842
99.424500,1839
99.425000,1862
99.425500,1856
99.426000,1828
99.426500,1810
99.427000,1811
99.427500,1791
99.428000,1783
99.428500,1796
99.429000,1788
99.429500,1768
99.430000,1775
99.430500,1772
99.431000,1766
99.431500,1758
99.432000,1774
99.432500,1774
99.433000,1782
99.433500,1813
99.434000,1823
99.434500,1815
99.435000,1809
99.435500,1815
99.436000,1802
99.436500,1788
99.437000,1799
99.437500,1801
99.438000,1784
99.438500,1779
99.439000,1789
99.439500,1774
99.440000,1767
99.440500,1790
99.441000,1809
99.441500,1798
99.442000,1822
99.442500,1824
99.443000,1814
99.443500,1811
99.444000,1824
99.444500,1832
99.445000,1816
99.445500,1819
99.446000,1817
99.446500,1795
99.447000,1782
99.447500,1795
99.448000,1784
99.448500,1791
99.449000,1813
99.449500,1816
99.450000,1804
99.450500,1805
99.451000,1829
99.451500,1824
99.452000,1817
99.452500,1831
99.453000,1843
99.453500,1809
99.454000,1785
99.454500,1791
99.455000,1784
99.455500,1778
99.456000,1803
99.456500,1808
99.457000,1782
99.457500,1768
99.458000,1764
99.458500,1754
99.459000,1757
99.459500,1784
99.460000,1805
99.460500,1786
99.461000,1807
99.461500,1812
99.462000,1799
99.462500,1799
99.463000,1823
99.463500,1820
99.464000,1808
99.464500,1821
99.465000,1820
99.465500,1798
99.466000,1797
99.466500,1808
99.467000,1809
99.467500,1806
99.468000,1811
99.468500,1814
99.469000,1813
99.469500,1835
99.470000,1841
99.470500,1823
99.471000,1798
99.471500,1800
99.472000,1771
99.472500,1763
99.473000,1773
99.473500,1775
99.474000,1757
99.474500,1757
99.475000,1781
99.475500,1780
99.476000,1775
99.476500,1779
99.477000,1772
99.477500,1739
99.478000,1761
99.478500,1759
99.479000,1761
99.479500,1769
99.480000,1801
99.480500,1812
99.481000,1811
99.481500,1822
99.482000,1831
99.482500,1817
99.483000,1812
99.483500,1826
99.484000,1814
99.484500,1802
99.485000,1812
99.485500,1811
99.486000,1795
99.486500,1792
99.487000,1816
99.487500,1811
99.488000,1804
99.488500,1813
99.489000,1811
99.489500,1796
99.490000,1796
99.490500,1800
99.491000,1798
99.491500,1798
99.492000,1826
99.492500,1841
99.493000,1835
99.493500,1845
99.494000,1849
99.494500,1827
99.495000,1809
99.495500,1803
99.496000,1780
99.496500,1744
99.497000,1740
99.497500,1741
99.498000,1731
99.498500,1741
99.499000,1777
99.499500,1774
99.500000,1769
99.500500,1789
99.501000,1806
99.501500,1793
99.502000,1794
99.502500,1810
99.503000,1805
99.503500,1809
99.504000,1835
99.504500,1846
99.505000,1833
99.505500,1835
99.506000,1831
99.506500,1808
99.507000,1802
99.507500,1822
99.508000,1807
99.508500,1794
99.509000,1792
99.509500,1792
99.510000,1781
99.510500,1787
99.511000,1817
99.511500,1808
99.512000,1794
99.512500,1793
99.513000,1791
99.513500,1761
99.514000,1753
99.514500,1780
99.515000,1794
99.515500,1828
99.516000,1882
99.516500,1901
99.517000,1882
99.517500,1888
99.518000,1875
99.518500,1837
99.519000,1813
99.519500,1805
99.520000,1769
99.520500,1741
99.521000,1734
99.521500,1716
99.522000,1693
99.522500,1700
99.523000,1743
99.523500,1754
99.524000,1765
99.524500,1779
99.525000,1788
99.525500,1764
99.526000,1772
99.526500,1776
99.527000,1763
99.527500,1763
99.528000,1786
99.528500,1784
99.529000,1786
99.529500,1804
99.530000,1823
99.530500,1813
99.531000,1816
99.531500,1833
99.532000,1826
99.532500,1819
99.533000,1830
99.533500,1841
99.534000,1830
99.534500,1830
99.535000,1849
99.535500,1834
99.536000,1824
99.536500,1827
99.537000,1829
99.537500,1811
99.538000,1811
99.538500,1801
99.539000,1794
99.539500,1821
99.540000,1876
99.540500,1881
99.541000,1878
99.541500,1883
99.542000,1882
99.542500,1856
99.543000,1837
99.543500,1838
99.544000,1798
99.544500,1744
99.545000,1712
99.545500,1694
99.546000,1695
99.546500,1730
99.547000,1739
99.547500,1754
99.548000,1766
99.548500,1792
99.549000,1799
99.549500,1793
99.550000,1807
99.550500,1825
99.551000,1811
99.551500,1794
99.552000,1787
99.552500,1748
99.553000,1722
99.553500,1713
99.554000,1713
99.554500,1714
99.555000,1741
99.555500,1781
99.556000,1796
99.556500,1795
99.557000,1815
99.557500,1818
99.558000,1800
99.558500,1799
99.559000,1801
99.559500,1781
99.560000,1775
99.560500,1801
99.561000,1821
99.561500,1812
99.562000,1828
99.562500,1834
99.563000,1815
99.563500,1793
99.564000,1791
99.564500,1771
99.565000,1763
99.565500,1778
99.566000,1783
99.566500,1775
99.567000,1779
99.567500,1809
99.568000,1804
99.568500,1802
99.569000,1816
99.569500,1827
99.570000,1817
99.570500,1819
99.571000,1837
99.571500,1823
99.572000,1811
99.572500,1816
99.573000,1813
99.573500,1792
99.574000,1802
99.574500,1809
99.575000,1791
99.575500,1787
99.576000,1806
99.576500,1809
99.577000,1819
99.577500,1855
99.578000,1888
99.578500,1894
99.579000,1909
99.579500,1934
99.580000,1929
99.580500,1909
99.581000,1901
99.581500,1873
99.582000,1815
99.582500,1766
99.583000,1705
99.583500,1659
99.584000,1640
99.584500,1663
99.585000,1678
99.585500,1691
99.586000,1717
99.586500,1736
99.587000,1742
99.587500,1753
99.588000,1781
99.588500,1787
99.589000,1794
99.589500,1821
99.590000,1832
99.590500,1819
99.591000,1838
99.591500,1827
99.592000,1808
99.592500,1793
99.593000,1794
99.593500,1785
99.594000,1765
99.594500,1774
99.595000,1783
99.595500,1780
99.596000,1783
99.596500,1797
99.597000,1785
99.597500,1781
99.598000,1796
99.598500,1826
99.599000,1832
99.599500,1838
99.600000,1855
99.600500,1842
99.601000,1833
99.601500,1845
99.602000,1863
99.602500,1855
99.603000,1868
99.603500,1845
99.604000,1810
99.604500,1788
99.605000,1800
99.605500,1795
99.606000,1780
99.606500,1781
99.607000,1772
99.607500,1740
99.608000,1730
99.608500,1751
99.609000,1759
99.609500,1761
99.610000,1783
99.610500,1794
99.611000,1786
99.611500,1778
99.612000,1796
99.612500,1803
99.613000,1824
99.613500,1858
99.614000,1869
99.614500,1861
99.615000,1862
99.615500,1871
99.616000,1849
99.616500,1823
99.617000,1823
99.617500,1787
99.618000,1731
99.618500,1708
99.619000,1707
99.619500,1711
99.620000,1726
99.620500,1754
99.621000,1758
99.621500,1759
99.622000,1775
99.622500,1778
99.623000,1772
99.623500,1787
99.624000,1788
99.624500,1804
99.625000,1849
99.625500,1896
99.626000,1915
99.626500,1896
99.627000,1899
99.627500,1890
99.628000,1864
99.628500,1844
99.629000,1826
99.629500,1768
99.630000,1713
99.630500,1687
99.631000,1704
99.631500,1711
99.632000,1730
99.632500,1765
99.633000,1766
99.633500,1763
99.634000,1774
99.634500,1782
99.635000,1771
99.635500,1791
99.636000,1789
99.636500,1783
99.637000,1789
99.637500,1815
99.638000,1825
99.638500,1811
99.639000,1825
99.639500,1836
99.640000,1823
99.640500,1822
99.641000,1840
99.641500,1823
99.642000,1806
99.642500,1803
99.643000,1802
99.643500,1798
99.644000,1794
99.644500,1820
99.645000,1823
99.645500,1825
99.646000,1836
99.646500,1840
99.647000,1819
99.647500,1800
99.648000,1802
99.648500,1780
99.649000,1772
99.649500,1783
99.650000,1787
99.650500,1768
99.651000,1773
99.651500,1795
99.652000,1792
99.652500,1796
99.653000,1813
99.653500,1806
99.654000,1767
99.654500,1777
99.655000,1799
99.655500,1807
99.656000,1817
99.656500,1850
99.657000,1868
99.657500,1883
99.658000,1893
99.658500,1886
99.659000,1865
99.659500,1847
99.660000,1838
99.660500,1792
99.661000,1769
99.661500,1767
99.662000,1749
99.662500,1715
99.663000,1733
99.663500,1771
99.664000,1798
99.664500,1822
99.665000,1838
99.665500,1801
99.666000,1773
99.666500,1778
99.667000,1786
99.667500,1782
99.668000,1780
99.668500,1790
99.669000,1778
99.669500,1773
99.670000,1796
99.670500,1811
99.671000,1829
99.671500,1852
99.672000,1874
99.672500,1866
99.673000,1856
99.673500,1853
99.674000,1841
99.674500,1792
99.675000,1757
99.675500,1719
99.676000,1681
99.676500,1655
99.677000,1687
99.677500,1700
99.678000,1727
99.678500,1766
99.679000,1780
99.679500,1771
99.680000,1767
99.680500,1779
99.681000,1765
99.681500,1759
99.682000,1782
99.682500,1796
99.683000,1793
99.683500,1793
99.684000,1819
99.684500,1813
99.685000,1817
99.685500,1832
99.686000,1843
99.686500,1825
99.687000,1838
99.687500,1835
99.688000,1821
99.688500,1806
99.689000,1813
99.689500,1792
99.690000,1788
99.690500,1793
99.691000,1797
99.691500,1787
99.692000,1790
99.692500,1809
99.693000,1808
99.693500,1814
99.694000,1831
99.694500,1847
99.695000,1843
99.695500,1863
99.696000,1871
99.696500,1872
99.697000,1873
99.697500,1879
99.698000,1867
99.698500,1834
99.699000,1823
99.699500,1790
99.700000,1742
99.700500,1722
99.701000,1716
99.701500,1704
99.702000,1719
99.702500,1751
99.703000,1779
99.703500,1784
99.704000,1783
99.704500,1798
99.705000,1785
99.705500,1771
99.706000,1779
99.706500,1774
99.707000,1750
99.707500,1771
99.708000,1763
99.708500,1767
99.709000,1771
99.709500,1792
99.710000,1802
99.710500,1793
99.711000,1807
99.711500,1809
99.712000,1791
99.712500,1782
99.713000,1797
99.713500,1793
99.714000,1790
99.714500,1809
99.715000,1819
99.715500,1806
99.716000,1802
99.716500,1823
99.717000,1825
99.717500,1827
99.718000,1848
99.718500,1851
99.719000,1829
99.719500,1841
99.720000,1842
99.720500,1826
99.721000,1811
99.721500,1807
99.722000,1791
99.722500,1766
99.723000,1814
99.723500,1877
99.724000,1909
99.724500,1922
99.725000,1939
99.725500,1943
99.726000,1912
99.726500,1903
99.727000,1870
99.727500,1807
99.728000,1726
99.728500,1674
99.729000,1633
99.729500,1625
99.730000,1674
99.730500,1716
99.731000,1731
99.731500,1742
99.732000,1772
99.732500,1774
99.733000,1774
99.733500,1791
99.734000,1800
99.734500,1790
99.735000,1822
99.735500,1815
99.736000,1806
99.736500,1801
99.737000,1813
99.737500,1811
99.738000,1792
99.738500,1819
99.739000,1845
99.739500,1839
99.740000,1826
99.740500,1817
99.741000,1796
99.741500,1783
99.742000,1775
99.742500,1768
99.743000,1758
99.743500,1753
99.744000,1767
99.744500,1762
99.745000,1765
99.745500,1779
99.746000,1787
99.746500,1772
99.747000,1774
99.747500,1808
99.748000,1811
99.748500,1813
99.749000,1830
99.749500,1832
99.750000,1810
99.750500,1826
99.751000,1832
99.751500,1820
99.752000,1814
99.752500,1847
99.753000,1854
99.753500,1832
99.754000,1816
99.754500,1822
99.755000,1835
99.755500,1848
99.756000,1866
99.756500,1847
99.757000,1828
99.757500,1818
99.758000,1801
99.758500,1772
99.759000,1765
99.759500,1751
99.760000,1711
99.760500,1689
99.761000,1703
99.761500,1730
99.762000,1740
99.762500,1757
99.763000,1770
99.763500,1749
99.764000,1738
99.764500,1755
99.765000,1772
99.765500,1766
99.766000,1788
99.766500,1791
99.767000,1784
99.767500,1783
99.768000,1800
99.768500,1796
99.769000,1791
99.769500,1808
99.770000,1816
99.770500,1803
99.771000,1827
99.771500,1824
99.772000,1819
99.772500,1819
99.773000,1837
99.773500,1842
99.774000,1833
99.774500,1870
99.775000,1905
99.775500,1900
99.776000,1892
99.776500,1903
99.777000,1885
99.777500,1870
99.778000,1866
99.778500,1840
99.779000,1783
99.779500,1752
99.780000,1710
99.780500,1672
99.781000,1672
99.781500,1715
99.782000,1757
99.782500,1758
99.783000,1781
99.783500,1785
99.784000,1771
99.784500,1760
99.785000,1774
99.785500,1774
99.786000,1775
99.786500,1794
99.787000,1814
99.787500,1808
99.788000,1813
99.788500,1835
99.789000,1840
99.789500,1853
99.790000,1870
99.790500,1875
99.791000,1849
99.791500,1848
99.792000,1837
99.792500,1820
99.793000,1805
99.793500,1803
99.794000,1793
99.794500,1778
99.795000,1797
99.795500,1807
99.796000,1802
99.796500,1813
99.797000,1841
99.797500,1832
99.798000,1822
99.798500,1819
99.799000,1787
99.799500,1733
99.800000,1710
99.800500,1715
99.801000,1721
99.801500,1728
99.802000,1764
99.802500,1776
99.803000,1763
99.803500,1756
99.804000,1780
99.804500,1775
99.805000,1777
99.805500,1791
99.806000,1792
99.806500,1774
99.807000,1784
99.807500,1796
99.808000,1784
99.808500,1779
99.809000,1799
99.809500,1804
99.810000,1789
99.810500,1807
99.811000,1816
99.811500,1811
99.812000,1812
99.812500,1825
99.813000,1814
99.813500,1803
99.814000,1817
99.814500,1826
99.815000,1817
99.815500,1819
99.816000,1866
99.816500,1887
99.817000,1915
99.817500,1938
99.818000,1935
99.818500,1903
99.819000,1910
99.819500,1882
99.820000,1834
99.820500,1780
99.821000,1754
99.821500,1725
99.822000,1688
99.822500,1695
99.823000,1724
99.823500,1735
99.824000,1735
99.824500,1748
99.825000,1730
99.825500,1732
99.826000,1750
99.826500,1763
99.827000,1761
99.827500,1769
99.828000,1784
99.828500,1777
99.829000,1776
99.829500,1798
99.830000,1815
99.830500,1798
99.831000,1793
99.831500,1801
99.832000,1786
99.832500,1791
99.833000,1817
99.833500,1836
99.834000,1830
99.834500,1855
99.835000,1869
99.835500,1867
99.836000,1875
99.836500,1887
99.837000,1881
99.837500,1841
99.838000,1835
99.838500,1819
99.839000,1782
99.839500,1769
99.840000,1771
99.840500,1742
99.841000,1722
99.841500,1747
99.842000,1771
99.842500,1778
99.843000,1793
99.843500,1813
99.844000,1800
99.844500,1790
99.845000,1800
99.845500,1796
99.846000,1785
99.846500,1812
99.847000,1808
99.847500,1807
99.848000,1799
99.848500,1803
99.849000,1789
99.849500,1759
99.850000,1767
99.850500,1768
99.851000,1754
99.851500,1754
99.852000,1795
99.852500,1799
99.853000,1816
99.853500,1845
99.854000,1858
99.854500,1841
99.855000,1827
99.855500,1831
99.856000,1811
99.856500,1792
99.857000,1791
99.857500,1780
99.858000,1751
99.858500,1746
99.859000,1771
99.859500,1773
99.860000,1767
99.860500,1779
99.861000,1784
99.861500,1769
99.862000,1793
99.862500,1790
99.863000,1787
99.863500,1794
99.864000,1831
99.864500,1859
99.865000,1868
99.865500,1890
99.866000,1915
99.866500,1914
99.867000,1916
99.867500,1922
99.868000,1886
99.868500,1851
99.869000,1805
99.869500,1758
99.870000,1709
99.870500,1691
99.871000,1708
99.871500,1717
99.872000,1743
99.872500,1784
99.873000,1813
99.873500,1810
99.874000,1813
99.874500,1822
99.875000,1808
99.875500,1808
99.876000,1829
99.876500,1821
99.877000,1784
99.877500,1767
99.878000,1745
99.878500,1728
99.879000,1740
99.879500,1780
99.880000,1785
99.880500,1775
99.881000,1770
99.881500,1758
99.882000,1733
99.882500,1733
99.883000,1752
99.883500,1754
99.884000,1754
99.884500,1767
99.885000,1776
99.885500,1771
99.886000,1783
99.886500,1805
99.887000,1804
99.887500,1813
99.888000,1838
99.888500,1854
99.889000,1834
99.889500,1846
99.890000,1839
99.890500,1816
99.891000,1804
99.891500,1810
99.892000,1782
99.892500,1781
99.893000,1798
99.893500,1807
99.894000,1798
99.894500,1797
99.895000,1812
99.895500,1799
99.896000,1793
99.896500,1798
99.897000,1802
99.897500,1790
99.898000,1791
99.898500,1816
99.899000,1822
99.899500,1831
99.900000,1846
99.900500,1842
99.901000,1823
99.901500,1811
99.902000,1814
99.902500,1787
99.903000,1767
99.903500,1771
99.904000,1779
99.904500,1768
99.905000,1800
99.905500,1807
99.906000,1792
99.906500,1795
99.907000,1812
99.907500,1802
99.908000,1785
99.908500,1805
99.909000,1821
99.909500,1812
99.910000,1809
99.910500,1828
99.911000,1812
99.911500,1796
99.912000,1809
99.912500,1819
99.913000,1813
99.913500,1832
99.914000,1823
99.914500,1809
99.915000,1801
99.915500,1820
99.916000,1815
99.916500,1816
99.917000,1824
99.917500,1811
99.918000,1779
99.918500,1773
99.919000,1808
99.919500,1810
99.920000,1790
99.920500,1783
99.921000,1770
99.921500,1743
99.922000,1741
99.922500,1775
99.923000,1793
99.923500,1810
99.924000,1838
99.924500,1848
99.925000,1834
99.925500,1835
99.926000,1829
99.926500,1800
99.927000,1774
99.927500,1760
99.928000,1733
99.928500,1720
99.929000,1742
99.929500,1776
99.930000,1787
99.930500,1806
99.931000,1848
99.931500,1844
99.932000,1840
99.932500,1847
99.933000,1851
99.933500,1825
99.934000,1829
99.934500,1845
99.935000,1833
99.935500,1819
99.936000,1819
99.936500,1791
99.937000,1782
99.937500,1776
99.938000,1762
99.938500,1741
99.939000,1728
99.939500,1740
99.940000,1732
99.940500,1731
99.941000,1755
99.941500,1766
99.942000,1755
99.942500,1781
99.943000,1784
99.943500,1778
99.944000,1772
99.944500,1793
99.945000,1802
99.945500,1788
99.946000,1798
99.946500,1811
99.947000,1811
99.947500,1813
99.948000,1826
99.948500,1823
99.949000,1838
99.949500,1878
99.950000,1888
99.950500,1874
99.951000,1862
99.951500,1862
99.952000,1833
99.952500,1808
99.953000,1803
99.953500,1791
99.954000,1757
99.954500,1759
99.955000,1776
99.955500,1797
99.956000,1828
99.956500,1859
99.957000,1868
99.957500,1840
99.958000,1825
99.958500,1802
99.959000,1752
99.959500,1718
99.960000,1716
99.960500,1702
99.961000,1702
99.961500,1735
99.962000,1766
99.962500,1767
99.963000,1769
99.963500,1786
99.964000,1773
99.964500,1770
99.965000,1784
99.965500,1790
99.966000,1779
99.966500,1783
99.967000,1797
99.967500,1795
99.968000,1813
99.968500,1844
99.969000,1871
99.969500,1883
99.970000,1907
99.970500,1946
99.971000,1989
99.971500,2015
99.972000,2023
99.972500,1978
99.973000,1923
99.973500,1892
99.974000,1859
99.974500,1797
99.975000,1743
99.975500,1690
99.976000,1595
99.976500,1554
99.977000,1593
99.977500,1649
99.978000,1668
99.978500,1682
99.979000,1699
99.979500,1691
99.980000,1696
99.980500,1727
99.981000,1735
99.981500,1746
99.982000,1768
99.982500,1778
99.983000,1771
99.983500,1769
99.984000,1787
99.984500,1783
99.985000,1783
99.985500,1798
99.986000,1807
99.986500,1793
99.987000,1808
99.987500,1808
99.988000,1799
99.988500,1798
99.989000,1819
99.989500,1826
99.990000,1810
99.990500,1828
99.991000,1832
99.991500,1818
99.992000,1815
99.992500,1832
99.993000,1815
99.993500,1816
99.994000,1828
99.994500,1830
99.995000,1813
99.995500,1808
99.996000,1825
99.996500,1807
99.997000,1796
99.997500,1804
99.998000,1809
99.998500,1802
99.999000,1794
99.999500,1807
100.000000,1796
100.000500,1796
100.001000,1823
100.001500,1843
100.002000,1838
100.002500,1854
100.003000,1859
100.003500,1843
100.004000,1823
100.004500,1829
100.005000,1805
100.005500,1784
100.006000,1778
100.006500,1772
100.007000,1764
100.007500,1758
100.008000,1771
100.008500,1762
100.009000,1758
100.009500,1782
100.010000,1799
100.010500,1824
100.011000,1868
100.011500,1899
100.012000,1899
100.012500,1884
100.013000,1882
100.013500,1867
100.014000,1823
100.014500,1799
100.015000,1773
100.015500,1719
100.016000,1692
100.016500,1715
100.017000,1746
100.017500,1744
100.018000,1785
100.018500,1814
100.019000,1803
100.019500,1796
100.020000,1804
100.020500,1790
100.021000,1779
100.021500,1789
100.022000,1791
100.022500,1764
100.023000,1740
100.023500,1739
100.024000,1729
100.024500,1732
100.025000,1765
100.025500,1795
100.026000,1812
100.026500,1861
100.027000,1877
100.027500,1864
100.028000,1857
100.028500,1868
100.029000,1870
100.029500,1858
100.030000,1853
100.030500,1837
100.031000,1770
100.031500,1716
100.032000,1724
100.032500,1745
100.033000,1768
100.033500,1801
100.034000,1811
100.034500,1782
100.035000,1761
100.035500,1773
100.036000,1778
100.036500,1786
100.037000,1805
100.037500,1808
100.038000,1793
100.038500,1802
100.039000,1794
100.039500,1783
100.040000,1781
100.040500,1787
100.041000,1785
100.041500,1758
100.042000,1770
100.042500,1781
100.043000,1781
100.043500,1793
100.044000,1827
100.044500,1832
100.045000,1842
100.045500,1874
100.046000,1908
100.046500,1906
100.047000,1916
100.047500,1954
100.048000,1977
100.048500,1969
100.049000,1957
100.049500,1926
100.050000,1864
100.050500,1799
100.051000,1752
100.051500,1706
100.052000,1680
100.052500,1663
100.053000,1644
100.053500,1632
100.054000,1685
100.054500,1730
100.055000,1736
100.055500,1731
100.056000,1749
100.056500,1731
100.057000,1722
100.057500,1733
100.058000,1737
100.058500,1725
100.059000,1747
100.059500,1763
100.060000,1762
100.060500,1764
100.061000,1789
100.061500,1794
100.062000,1778
100.062500,1791
100.063000,1805
100.063500,1793
100.064000,1788
100.064500,1808
100.065000,1806
100.065500,1813
100.066000,1831
100.066500,1842
100.067000,1840
100.067500,1839
100.068000,1854
100.068500,1842
100.069000,1829
100.069500,1834
100.070000,1823
100.070500,1806
100.071000,1825
100.071500,1832
100.072000,1823
100.072500,1827
100.073000,1851
100.073500,1859
100.074000,1832
100.074500,1832
100.075000,1811
100.075500,1761
100.076000,1709
100.076500,1714
100.077000,1720
100.077500,1735
100.078000,1774
100.078500,1800
100.079000,1784
100.079500,1802
100.080000,1786
100.080500,1773
100.081000,1776
100.081500,1798
100.082000,1810
100.082500,1793
100.083000,1802
100.083500,1813
100.084000,1795
100.084500,1790
100.085000,1803
100.085500,1805
100.086000,1819
100.086500,1862
100.087000,1906
100.087500,1920
100.088000,1923
100.088500,1934
100.089000,1913
100.089500,1887
100.090000,1882
100.090500,1852
100.091000,1781
100.091500,1710
100.092000,1657
100.092500,1638
100.093000,1679
100.093500,1747
100.094000,1777
100.094500,1799
100.095000,1811
100.095500,1812
100.096000,1791
100.096500,1782
100.097000,1794
100.097500,1782
100.098000,1761
100.098500,1755
100.099000,1747
100.099500,1727
100.100000,1755
100.100500,1766
100.101000,1769
100.101500,1774
100.102000,1788
100.102500,1794
100.103000,1782
100.103500,1787
100.104000,1798
100.104500,1782
100.105000,1779
100.105500,1797
100.106000,1797
100.106500,1792
100.107000,1809
100.107500,1820
100.108000,1811
100.108500,1818
100.109000,1832
100.109500,1820
100.110000,1820
100.110500,1829
100.111000,1835
100.111500,1817
100.112000,1826
100.112500,1834
100.113000,1840
100.113500,1842
100.114000,1865
100.114500,1865
100.115000,1854
100.115500,1862
100.116000,1874
100.116500,1849
100.117000,1854
100.117500,1834
100.118000,1802
100.118500,1768
100.119000,1761
100.119500,1737
100.120000,1691
100.120500,1683
100.121000,1695
100.121500,1703
100.122000,1732
100.122500,1773
100.123000,1779
100.123500,1763
100.124000,1776
100.124500,1783
100.125000,1778
100.125500,1790
100.126000,1810
100.126500,1800
100.127000,1797
100.127500,1815
100.128000,1828
100.128500,1830
100.129000,1833
100.129500,1827
100.130000,1804
100.130500,1796
100.131000,1832
100.131500,1841
100.132000,1858
100.132500,1867
100.133000,1856
100.133500,1813
100.134000,1779
100.134500,1779
100.135000,1762
100.135500,1757
100.136000,1762
100.136500,1758
100.137000,1742
100.137500,1770
100.138000,1774
100.138500,1772
100.139000,1784
100.139500,1814
100.140000,1829
100.140500,1817
100.141000,1825
100.141500,1830
100.142000,1823
100.142500,1826
100.143000,1849
100.143500,1847
100.144000,1837
100.144500,1848
100.145000,1843
100.145500,1812
100.146000,1796
100.146500,1804
100.147000,1791
100.147500,1771
100.148000,1766
100.148500,1767
100.149000,1758
100.149500,1790
100.150000,1800
100.150500,1774
100.151000,1764
100.151500,1782
100.152000,1783
100.152500,1794
100.153000,1830
100.153500,1855
100.154000,1854
100.154500,1851
100.155000,1860
100.155500,1819
100.156000,1761
100.156500,1731
100.157000,1726
100.157500,1716
100.158000,1743
100.158500,1757
100.159000,1757
100.159500,1757
100.160000,1773
100.160500,1758
100.161000,1752
100.161500,1771
100.162000,1785
100.162500,1775
100.163000,1780
100.163500,1814
100.164000,1838
100.164500,1856
100.165000,1873
100.165500,1880
100.166000,1864
100.166500,1871
100.167000,1863
100.167500,1829
100.168000,1786
100.168500,1750
100.169000,1696
100.169500,1698
100.170000,1747
100.170500,1790
100.171000,1803
100.171500,1809
100.172000,1826
100.172500,1813
100.173000,1812
100.173500,1827
100.174000,1844
100.174500,1836
100.175000,1845
100.175500,1850
100.176000,1833
100.176500,1826
100.177000,1840
100.177500,1840
100.178000,1807
100.178500,1788
100.179000,1775
100.179500,1748
100.180000,1736
100.180500,1766
100.181000,1767
100.181500,1754
100.182000,1753
100.182500,1744
100.183000,1729
100.183500,1747
100.184000,1783
100.184500,1784
100.185000,1787
100.185500,1801
100.186000,1803
100.186500,1783
100.187000,1803
100.187500,1792
100.188000,1770
100.188500,1758
100.189000,1770
100.189500,1793
100.190000,1785
100.190500,1818
100.191000,1846
100.191500,1845
100.192000,1849
100.192500,1866
100.193000,1852
100.193500,1835
100.194000,1837
100.194500,1822
100.195000,1793
100.195500,1785
100.196000,1803
100.196500,1786
100.197000,1789
100.197500,1813
100.198000,1827
100.198500,1813
100.199000,1818
100.199500,1823
100.200000,1810
100.200500,1795
100.201000,1805
100.201500,1787
100.202000,1768
100.202500,1774
100.203000,1779
100.203500,1773
100.204000,1773
100.204500,1771
100.205000,1755
100.205500,1763
100.206000,1795
100.206500,1822
100.207000,1821
100.207500,1850
100.208000,1844
100.208500,1822
100.209000,1807
100.209500,1816
100.210000,1814
100.210500,1775
100.211000,1765
100.211500,1752
100.212000,1737
100.212500,1737
100.213000,1751
100.213500,1741
100.214000,1746
100.214500,1766
100.215000,1781
100.215500,1778
100.216000,1776
100.216500,1799
100.217000,1793
100.217500,1792
100.218000,1806
100.218500,1810
100.219000,1794
100.219500,1809
100.220000,1816
100.220500,1807
100.221000,1804
100.221500,1815
100.222000,1814
100.222500,1792
100.223000,1812
100.223500,1821
100.224000,1824
100.224500,1832
100.225000,1850
100.225500,1845
100.226000,1834
100.226500,1842
100.227000,1844
100.227500,1821
100.228000,1795
100.228500,1793
100.229000,1754
100.229500,1743
100.230000,1763
100.230500,1775
100.231000,1771
100.231500,1770
100.232000,1782
100.232500,1781
100.233000,1795
100.233500,1821
100.234000,1827
100.234500,1815
100.235000,1833
100.235500,1855
100.236000,1863
100.236500,1878
100.237000,1902
100.237500,1878
100.238000,1875
100.238500,1891
100.239000,1882
100.239500,1846
100.240000,1796
100.240500,1749
100.241000,1673
100.241500,1625
100.242000,1656
100.242500,1699
100.243000,1720
100.243500,1742
100.244000,1771
100.244500,1768
100.245000,1767
100.245500,1796
100.246000,1799
100.246500,1811
100.247000,1831
100.247500,1836
100.248000,1817
100.248500,1801
100.249000,1789
100.249500,1770
100.250000,1769
100.250500,1775
100.251000,1781
100.251500,1765
100.252000,1797
100.252500,1800
100.253000,1801
100.253500,1794
100.254000,1809
100.254500,1816
100.255000,1804
100.255500,1819
100.256000,1834
100.256500,1824
100.257000,1819
100.257500,1829
100.258000,1809
100.258500,1798
100.259000,1825
100.259500,1865
100.260000,1873
100.260500,1867
100.261000,1874
100.261500,1843
100.262000,1822
100.262500,1829
100.263000,1827
100.263500,1789
100.264000,1751
100.264500,1693
100.265000,1651
100.265500,1655
100.266000,1703
100.266500,1732
100.267000,1766
100.267500,1786
100.268000,1786
100.268500,1774
100.269000,1778
100.269500,1809
100.270000,1817
100.270500,1819
100.271000,1830
100.271500,1838
100.272000,1823
100.272500,1841
100.273000,1835
100.273500,1808
100.274000,1767
100.274500,1753
100.275000,1744
100.275500,1733
100.276000,1759
100.276500,1785
100.277000,1784
100.277500,1783
100.278000,1799
100.278500,1791
100.279000,1786
100.279500,1827
100.280000,1854
100.280500,1842
100.281000,1839
100.281500,1851
100.282000,1843
100.282500,1844
100.283000,1862
100.283500,1857
100.284000,1818
100.284500,1783
100.285000,1771
100.285500,1768
100.286000,1786
100.286500,1800
100.287000,1756
100.287500,1737
100.288000,1744
100.288500,1761
100.289000,1755
100.289500,1763
100.290000,1784
100.290500,1781
100.291000,1790
100.291500,1816
100.292000,1849
100.292500,1857
100.293000,1858
100.293500,1882
100.294000,1864
100.294500,1842
100.295000,1847
100.295500,1838
100.296000,1797
100.296500,1782
100.297000,1759
100.297500,1734
100.298000,1742
100.298500,1797
100.299000,1823
100.299500,1830
100.300000,1828
100.300500,1804
100.301000,1754
100.301500,1716
100.302000,1723
100.302500,1726
100.303000,1741
100.303500,1755
100.304000,1767
100.304500,1754
100.305000,1755
100.305500,1775
100.306000,1773
100.306500,1768
100.307000,1787
100.307500,1794
100.308000,1778
100.308500,1778
100.309000,1800
100.309500,1793
100.310000,1794
100.310500,1819
100.311000,1834
100.311500,1827
100.312000,1850
100.312500,1859
100.313000,1846
100.313500,1833
100.314000,1843
100.314500,1827
100.315000,1816
100.315500,1827
100.316000,1843
100.316500,1842
100.317000,1853
100.317500,1868
100.318000,1850
100.318500,1830
100.319000,1815
100.319500,1805
100.320000,1762
100.320500,1750
100.321000,1751
100.321500,1739
100.322000,1747
100.322500,1774
100.323000,1765
100.323500,1756
100.324000,1742
100.324500,1718
100.325000,1687
100.325500,1684
100.326000,1730
100.326500,1753
100.327000,1772
100.327500,1794
100.328000,1813
100.328500,1809
100.329000,1823
100.329500,1832
100.330000,1821
100.330500,1825
100.331000,1850
100.331500,1859
100.332000,1834
100.332500,1840
100.333000,1841
100.333500,1828
100.334000,1818
100.334500,1826
100.335000,1807
100.335500,1788
100.336000,1800
100.336500,1810
100.337000,1800
100.337500,1802
100.338000,1835
100.338500,1830
100.339000,1826
100.339500,1850
100.340000,1864
100.340500,1843
100.341000,1856
100.341500,1863
100.342000,1829
100.342500,1784
100.343000,1766
100.343500,1733
100.344000,1692
100.344500,1688
100.345000,1701
100.345500,1706
100.346000,1715
100.346500,1740
100.347000,1739
100.347500,1744
100.348000,1759
100.348500,1772
100.349000,1763
100.349500,1785
100.350000,1786
100.350500,1781
100.351000,1783
100.351500,1804
100.352000,1821
100.352500,1828
100.353000,1886
100.353500,1929
100.354000,1936
100.354500,1926
100.355000,1936
100.355500,1921
100.356000,1899
100.356500,1889
100.357000,1875
100.357500,1822
100.358000,1759
100.358500,1732
100.359000,1715
100.359500,1733
100.360000,1772
100.360500,1794
100.361000,1770
100.361500,1748
100.362000,1697
100.362500,1671
100.363000,1678
100.363500,1714
100.364000,1732
100.364500,1734
100.365000,1758
100.365500,1766
100.366000,1754
100.366500,1754
100.367000,1774
100.367500,1768
100.368000,1770
100.368500,1794
100.369000,1816
100.369500,1822
100.370000,1843
100.370500,1867
100.371000,1859
100.371500,1844
100.372000,1861
100.372500,1868
100.373000,1850
100.373500,1851
100.374000,1834
100.374500,1792
100.375000,1770
100.375500,1801
100.376000,1829
100.376500,1818
100.377000,1834
100.377500,1837
100.378000,1819
100.378500,1808
100.379000,1819
100.379500,1803
100.380000,1779
100.380500,1770
100.381000,1766
100.381500,1738
100.382000,1719
100.382500,1727
100.383000,1723
100.383500,1738
100.384000,1767
100.384500,1781
100.385000,1765
100.385500,1766
100.386000,1779
100.386500,1768
100.387000,1768
100.387500,1791
100.388000,1802
100.388500,1790
100.389000,1800
100.389500,1811
100.390000,1803
100.390500,1794
100.391000,1820
100.391500,1843
100.392000,1866
100.392500,1909
100.393000,1960
100.393500,1961
100.394000,1954
100.394500,1960
100.395000,1937
100.395500,1887
100.396000,1855
100.396500,1813
100.397000,1749
100.397500,1735
100.398000,1723
100.398500,1711
100.399000,1730
100.399500,1763
100.400000,1766
100.400500,1714
100.401000,1690
100.401500,1695
100.402000,1701
100.402500,1720
100.403000,1762
100.403500,1755
100.404000,1740
100.404500,1742
100.405000,1747
100.405500,1745
100.406000,1753
100.406500,1785
100.407000,1786
100.407500,1787
100.408000,1805
100.408500,1810
100.409000,1803
100.409500,1810
100.410000,1824
100.410500,1817
100.411000,1814
100.411500,1831
100.412000,1817
100.412500,1822
100.413000,1835
100.413500,1853
100.414000,1848
100.414500,1846
100.415000,1862
100.415500,1843
100.416000,1826
100.416500,1832
100.417000,1831
100.417500,1803
100.418000,1800
100.418500,1786
100.419000,1762
100.419500,1753
100.420000,1777
100.420500,1776
100.421000,1796
100.421500,1816
100.422000,1834
100.422500,1821
100.423000,1821
100.423500,1844
100.424000,1825
100.424500,1805
100.425000,1801
100.425500,1790
100.426000,1762
100.426500,1771
100.427000,1784
100.427500,1779
100.428000,1778
100.428500,1784
100.429000,1769
100.429500,1763
100.430000,1779
100.430500,1788
100.431000,1794
100.431500,1792
100.432000,1813
100.432500,1801
100.433000,1800
100.433500,1816
100.434000,1823
100.434500,1808
100.435000,1826
100.435500,1853
100.436000,1884
100.436500,1909
100.437000,1946
100.437500,1942
100.438000,1920
100.438500,1904
100.439000,1871
100.439500,1796
100.440000,1712
100.440500,1666
100.441000,1624
100.441500,1637
100.442000,1702
100.442500,1759
100.443000,1776
100.443500,1785
100.444000,1771
100.444500,1754
100.445000,1757
100.445500,1772
100.446000,1765
100.446500,1756
100.447000,1765
100.447500,1764
100.448000,1749
100.448500,1739
100.449000,1747
100.449500,1755
100.450000,1773
100.450500,1802
100.451000,1814
100.451500,1793
100.452000,1808
100.452500,1808
100.453000,1799
100.453500,1803
100.454000,1827
100.454500,1827
100.455000,1823
100.455500,1833
100.456000,1848
100.456500,1840
100.457000,1837
100.457500,1854
100.458000,1837
100.458500,1823
100.459000,1833
100.459500,1831
100.460000,1800
100.460500,1776
100.461000,1778
100.461500,1776
100.462000,1782
100.462500,1798
100.463000,1811
100.463500,1807
100.464000,1829
100.464500,1839
100.465000,1830
100.465500,1827
100.466000,1823
100.466500,1790
100.467000,1776
100.467500,1802
100.468000,1816
100.468500,1799
100.469000,1805
100.469500,1783
100.470000,1757
100.470500,1737
100.471000,1741
100.471500,1748
100.472000,1735
100.472500,1749
100.473000,1761
100.473500,1760
100.474000,1766
100.474500,1798
100.475000,1792
100.475500,1791
100.476000,1809
100.476500,1823
100.477000,1821
100.477500,1826
100.478000,1851
100.478500,1833
100.479000,1825
100.479500,1837
100.480000,1837
100.480500,1833
100.481000,1844
100.481500,1837
100.482000,1819
100.482500,1827
100.483000,1853
100.483500,1853
100.484000,1837
100.484500,1834
100.485000,1810
100.485500,1752
100.486000,1727
100.486500,1724
100.487000,1726
100.487500,1752
100.488000,1798
100.488500,1811
100.489000,1791
100.489500,1801
100.490000,1826
100.490500,1839
100.491000,1849
100.491500,1868
100.492000,1862
100.492500,1846
100.493000,1847
100.493500,1843
100.494000,1800
100.494500,1743
100.495000,1723
100.495500,1695
100.496000,1690
100.496500,1719
100.497000,1748
100.497500,1752
100.498000,1771
100.498500,1774
100.499000,1763
100.499500,1763
100.500000,1783
100.500500,1776
100.501000,1778
100.501500,1799
100.502000,1816
100.502500,1809
100.503000,1807
100.503500,1819
100.504000,1808
100.504500,1814
100.505000,1869
100.505500,1927
100.506000,1950
100.506500,1959
100.507000,1974
100.507500,1959
100.508000,1943
100.508500,1934
100.509000,1890
100.509500,1784
100.510000,1684
100.510500,1592
100.511000,1569
100.511500,1612
100.512000,1682
100.512500,1720
100.513000,1746
100.513500,1757
100.514000,1750
100.514500,1730
100.515000,1755
100.515500,1774
100.516000,1782
100.516500,1781
100.517000,1800
100.517500,1807
100.518000,1793
100.518500,1804
100.519000,1814
100.519500,1803
100.520000,1804
100.520500,1824
100.521000,1820
100.521500,1803
100.522000,1806
100.522500,1811
100.523000,1799
100.523500,1818
100.524000,1814
100.524500,1818
100.525000,1837
100.525500,1867
100.526000,1879
100.526500,1879
100.527000,1893
100.527500,1891
100.528000,1874
100.528500,1859
100.529000,1853
100.529500,1824
100.530000,1777
100.530500,1763
100.531000,1760
100.531500,1739
100.532000,1737
100.532500,1756
100.533000,1741
100.533500,1753
100.534000,1810
100.534500,1848
100.535000,1838
100.535500,1843
100.536000,1844
100.536500,1823
100.537000,1809
100.537500,1803
100.538000,1755
100.538500,1703
100.539000,1680
100.539500,1687
100.540000,1706
100.540500,1758
100.541000,1792
100.541500,1791
100.542000,1782
100.542500,1781
100.543000,1784
100.543500,1774
100.544000,1794
100.544500,1816
100.545000,1813
100.545500,1805
100.546000,1829
100.546500,1822
100.547000,1817
100.547500,1828
100.548000,1840
100.548500,1826
100.549000,1823
100.549500,1826
100.550000,1827
100.550500,1829
100.551000,1842
100.551500,1832
100.552000,1802
100.552500,1790
100.553000,1787
100.553500,1779
100.554000,1785
100.554500,1811
100.555000,1803
100.555500,1797
100.556000,1817
100.556500,1829
100.557000,1803
100.557500,1796
100.558000,1811
100.558500,1786
100.559000,1763
100.559500,1775
100.560000,1783
100.560500,1768
100.561000,1775
100.561500,1781
100.562000,1774
100.562500,1782
100.563000,1836
100.563500,1864
100.564000,1869
100.564500,1873
100.565000,1870
100.565500,1848
100.566000,1832
100.566500,1828
100.567000,1803
100.567500,1766
100.568000,1741
100.568500,1726
100.569000,1723
100.569500,1763
100.570000,1786
100.570500,1783
100.571000,1775
100.571500,1784
100.572000,1798
100.572500,1815
100.573000,1842
100.573500,1843
100.574000,1818
100.574500,1785
100.575000,1789
100.575500,1774
100.576000,1777
100.576500,1794
100.577000,1784
100.577500,1747
100.578000,1739
100.578500,1749
100.579000,1751
100.579500,1769
100.580000,1809
100.580500,1800
100.581000,1810
100.581500,1822
100.582000,1835
100.582500,1823
100.583000,1818
100.583500,1833
100.584000,1818
100.584500,1807
100.585000,1805
100.585500,1822
100.586000,1821
100.586500,1849
100.587000,1862
100.587500,1856
100.588000,1842
100.588500,1840
100.589000,1816
100.589500,1776
100.590000,1778
100.590500,1779
100.591000,1766
100.591500,1755
100.592000,1771
100.592500,1761
100.593000,1762
100.593500,1778
100.594000,1791
100.594500,1782
100.595000,1784
100.595500,1805
100.596000,1783
100.596500,1765
100.597000,1778
100.597500,1787
100.598000,1774
100.598500,1781
100.599000,1805
100.599500,1797
100.600000,1796
100.600500,1827
100.601000,1827
100.601500,1835
100.602000,1853
100.602500,1863
100.603000,1863
100.603500,1869
100.604000,1892
100.604500,1875
100.605000,1866
100.605500,1874
100.606000,1864
100.606500,1833
100.607000,1833
100.607500,1802
100.608000,1745
100.608500,1701
100.609000,1689
100.609500,1682
100.610000,1679
100.610500,1718
100.611000,1745
100.611500,1743
100.612000,1743
100.612500,1757
100.613000,1752
100.613500,1747
100.614000,1770
100.614500,1782
100.615000,1772
100.615500,1775
100.616000,1802
100.616500,1797
100.617000,1793
100.617500,1809
100.618000,1819
100.618500,1801
100.619000,1812
100.619500,1822
100.620000,1812
100.620500,1808
100.621000,1823
100.621500,1804
100.622000,1805
100.622500,1818
100.623000,1828
100.623500,1818
100.624000,1819
100.624500,1831
100.625000,1821
100.625500,1809
100.626000,1816
100.626500,1817
100.627000,1803
100.627500,1802
100.628000,1802
100.628500,1784
100.629000,1768
100.629500,1782
100.630000,1764
100.630500,1776
100.631000,1791
100.631500,1802
100.632000,1795
100.632500,1801
100.633000,1830
100.633500,1833
100.634000,1835
100.634500,1851
100.635000,1860
100.635500,1862
100.636000,1894
100.636500,1896
100.637000,1860
100.637500,1831
100.638000,1824
100.638500,1800
100.639000,1784
100.639500,1787
100.640000,1779
100.640500,1742
100.641000,1731
100.641500,1759
100.642000,1775
100.642500,1784
100.643000,1810
100.643500,1818
100.644000,1803
100.644500,1821
100.645000,1834
100.645500,1813
100.646000,1788
100.646500,1778
100.647000,1758
100.647500,1765
100.648000,1780
100.648500,1787
100.649000,1767
100.649500,1747
100.650000,1765
100.650500,1759
100.651000,1765
100.651500,1784
100.652000,1798
100.652500,1786
100.653000,1800
100.653500,1838
100.654000,1844
100.654500,1842
100.655000,1865
100.655500,1861
100.656000,1875
100.656500,1887
100.657000,1875
100.657500,1830
100.658000,1794
100.658500,1805
100.659000,1807
100.659500,1807
100.660000,1808
100.660500,1800
100.661000,1778
100.661500,1770
100.662000,1765
100.662500,1754
100.663000,1753
100.663500,1773
100.664000,1778
100.664500,1756
100.665000,1771
100.665500,1761
100.666000,1730
100.666500,1729
100.667000,1767
100.667500,1776
100.668000,1782
100.668500,1792
100.669000,1795
100.669500,1789
100.670000,1805
100.670500,1808
100.671000,1789
100.671500,1773
100.672000,1775
100.672500,1786
100.673000,1791
100.673500,1815
100.674000,1832
100.674500,1819
100.675000,1810
100.675500,1842
100.676000,1866
100.676500,1891
100.677000,1924
100.677500,1936
100.678000,1907
100.678500,1911
100.679000,1901
100.679500,1874
100.680000,1833
100.680500,1799
100.681000,1742
100.681500,1692
100.682000,1702
100.682500,1731
100.683000,1734
100.683500,1725
100.684000,1729
100.684500,1719
100.685000,1709
100.685500,1744
100.686000,1782
100.686500,1805
100.687000,1831
100.687500,1864
100.688000,1863
100.688500,1859
100.689000,1868
100.689500,1859
100.690000,1807
100.690500,1786
100.691000,1751
100.691500,1709
100.692000,1697
100.692500,1728
100.693000,1742
100.693500,1749
100.694000,1773
100.694500,1786
100.695000,1774
100.695500,1771
100.696000,1796
100.696500,1796
100.697000,1801
100.697500,1832
100.698000,1842
100.698500,1834
100.699000,1841
100.699500,1852
100.700000,1828
100.700500,1811
100.701000,1800
100.701500,1770
100.702000,1762
100.702500,1779
100.703000,1805
100.703500,1803
100.704000,1810
100.704500,1820
100.705000,1798
100.705500,1777
100.706000,1791
100.706500,1797
100.707000,1783
100.707500,1793
100.708000,1790
100.708500,1772
100.709000,1777
100.709500,1814
100.710000,1845
100.710500,1838
100.711000,1853
100.711500,1881
100.712000,1906
100.712500,1939
100.713000,1981
100.713500,1976
100.714000,1942
100.714500,1919
100.715000,1882
100.715500,1827
100.716000,1775
100.716500,1741
100.717000,1679
100.717500,1642
100.718000,1662
100.718500,1678
100.719000,1685
100.719500,1720
100.720000,1743
100.720500,1731
100.721000,1733
100.721500,1750
100.722000,1757
100.722500,1769
100.723000,1788
100.723500,1798
100.724000,1787
100.724500,1784
100.725000,1804
100.725500,1790
100.726000,1777
100.726500,1779
100.727000,1780
100.727500,1768
100.728000,1791
100.728500,1816
100.729000,1816
100.729500,1822
100.730000,1836
100.730500,1829
100.731000,1819
100.731500,1817
100.732000,1814
100.732500,1794
100.733000,1784
100.733500,1803
100.734000,1809
100.734500,1814
100.735000,1839
100.735500,1845
100.736000,1820
100.736500,1819
100.737000,1840
100.737500,1817
100.738000,1807
100.738500,1822
100.739000,1835
100.739500,1821
100.740000,1832
100.740500,1837
100.741000,1829
100.741500,1818
100.742000,1829
100.742500,1817
100.743000,1802
100.743500,1788
100.744000,1766
100.744500,1739
100.745000,1735
100.745500,1757
100.746000,1763
100.746500,1766
100.747000,1781
100.747500,1784
100.748000,1769
100.748500,1776
100.749000,1786
100.749500,1784
100.750000,1782
100.750500,1796
100.751000,1790
100.751500,1807
100.752000,1844
100.752500,1879
100.753000,1894
100.753500,1897
100.754000,1915
100.754500,1894
100.755000,1880
100.755500,1885
100.756000,1892
100.756500,1867
100.757000,1851
100.757500,1822
100.758000,1783
100.758500,1771
100.759000,1810
100.759500,1820
100.760000,1787
100.760500,1759
100.761000,1710
100.761500,1650
100.762000,1631
100.762500,1673
100.763000,1715
100.763500,1744
100.764000,1768
100.764500,1770
100.765000,1762
100.765500,1773
100.766000,1803
100.766500,1797
100.767000,1793
100.767500,1811
100.768000,1823
100.768500,1813
100.769000,1826
100.769500,1819
100.770000,1799
100.770500,1790
100.771000,1802
100.771500,1812
100.772000,1789
100.772500,1789
100.773000,1782
100.773500,1769
100.774000,1763
100.774500,1781
100.775000,1781
100.775500,1784
100.776000,1809
100.776500,1822
100.777000,1811
100.777500,1815
100.778000,1834
100.778500,1827
100.779000,1822
100.779500,1833
100.780000,1821
100.780500,1793
100.781000,1820
100.781500,1856
100.782000,1855
100.782500,1847
100.783000,1854
100.783500,1830
100.784000,1796
100.784500,1790
100.785000,1781
100.785500,1766
100.786000,1767
100.786500,1783
100.787000,1770
100.787500,1753
100.788000,1762
100.788500,1763
100.789000,1756
100.789500,1782
100.790000,1788
100.790500,1787
100.791000,1795
100.791500,1813
100.792000,1820
100.792500,1798
100.793000,1795
100.793500,1789
100.794000,1769
100.794500,1764
100.795000,1802
100.795500,1810
100.796000,1819
100.796500,1844
100.797000,1854
100.797500,1852
100.798000,1857
100.798500,1878
100.799000,1878
100.799500,1876
100.800000,1889
100.800500,1876
100.801000,1834
100.801500,1821
100.802000,1791
100.802500,1756
100.803000,1730
100.803500,1730
100.804000,1728
100.804500,1718
100.805000,1747
100.805500,1771
100.806000,1773
100.806500,1766
100.807000,1777
100.807500,1781
100.808000,1783
100.808500,1807
100.809000,1816
100.809500,1804
100.810000,1804
100.810500,1820
100.811000,1812
100.811500,1791
100.812000,1786
100.812500,1771
100.813000,1754
100.813500,1776
100.814000,1798
100.814500,1803
100.815000,1810
100.815500,1826
100.816000,1845
100.816500,1847
100.817000,1873
100.817500,1879
100.818000,1863
100.818500,1858
100.819000,1862
100.819500,1837
100.820000,1817
100.820500,1808
100.821000,1785
100.821500,1752
100.822000,1745
100.822500,1776
100.823000,1791
100.823500,1787
100.824000,1805
100.824500,1810
100.825000,1795
100.825500,1791
100.826000,1810
100.826500,1801
100.827000,1798
100.827500,1808
100.828000,1801
100.828500,1770
100.829000,1757
100.829500,1736
100.830000,1722
100.830500,1734
100.831000,1770
100.831500,1775
100.832000,1776
100.832500,1790
100.833000,1795
100.833500,1783
100.834000,1790
100.834500,1833
100.835000,1836
100.835500,1836
100.836000,1849
100.836500,1850
100.837000,1827
100.837500,1818
100.838000,1828
100.838500,1809
100.839000,1800
100.839500,1820
100.840000,1846
100.840500,1847
100.841000,1884
100.841500,1900
100.842000,1882
100.842500,1855
100.843000,1839
100.843500,1812
100.844000,1782
100.844500,1784
100.845000,1794
100.845500,1802
100.846000,1830
100.846500,1866
100.847000,1849
100.847500,1810
100.848000,1788
100.848500,1761
100.849000,1719
100.849500,1707
100.850000,1697
100.850500,1695
100.851000,1723
100.851500,1761
100.852000,1767
100.852500,1753
100.853000,1762
100.853500,1772
100.854000,1758
100.854500,1750
100.855000,1774
100.855500,1775
100.856000,1757
100.856500,1766
100.857000,1779
100.857500,1779
100.858000,1791
100.858500,1813
100.859000,1806
100.859500,1805
100.860000,1828
100.860500,1838
100.861000,1836
100.861500,1850
100.862000,1854
100.862500,1845
100.863000,1835
100.863500,1845
100.864000,1837
100.864500,1794
100.865000,1783
100.865500,1765
100.866000,1747
100.866500,1740
100.867000,1774
100.867500,1778
100.868000,1775
100.868500,1789
100.869000,1795
100.869500,1792
100.870000,1794
100.870500,1798
100.871000,1790
100.871500,1790
100.872000,1812
100.872500,1820
100.873000,1809
100.873500,1816
100.874000,1811
100.874500,1792
100.875000,1798
100.875500,1819
100.876000,1809
100.876500,1809
100.877000,1819
100.877500,1819
100.878000,1801
100.878500,1796
100.879000,1819
100.879500,1817
100.880000,1815
100.880500,1831
100.881000,1836
100.881500,1812
100.882000,1820
100.882500,1797
100.883000,1776
100.883500,1761
100.884000,1777
100.884500,1799
100.885000,1791
100.885500,1816
100.886000,1839
100.886500,1842
100.887000,1873
100.887500,1912
100.888000,1922
100.888500,1921
100.889000,1926
100.889500,1935
100.890000,1911
100.890500,1884
100.891000,1829
100.891500,1756
100.892000,1712
100.892500,1707
100.893000,1707
100.893500,1688
100.894000,1697
100.894500,1705
100.895000,1702
100.895500,1716
100.896000,1747
100.896500,1744
100.897000,1739
100.897500,1754
100.898000,1760
100.898500,1746
100.899000,1768
100.899500,1786
100.900000,1782
100.900500,1784
100.901000,1805
100.901500,1815
100.902000,1806
100.902500,1830
100.903000,1862
100.903500,1855
100.904000,1856
100.904500,1870
100.905000,1869
100.905500,1851
100.906000,1853
100.906500,1838
100.907000,1795
100.907500,1756
100.908000,1752
100.908500,1750
100.909000,1762
100.909500,1785
100.910000,1791
100.910500,1775
100.911000,1778
100.911500,1783
100.912000,1770
100.912500,1770
100.913000,1790
100.913500,1789
100.914000,1783
100.914500,1791
100.915000,1798
100.915500,1781
100.916000,1777
100.916500,1796
100.917000,1792
100.917500,1787
100.918000,1801
100.918500,1815
100.919000,1804
100.919500,1824
100.920000,1845
100.920500,1834
100.921000,1824
100.921500,1837
100.922000,1839
100.922500,1819
100.923000,1831
100.923500,1834
100.924000,1824
100.924500,1809
100.925000,1831
100.925500,1828
100.926000,1827
100.926500,1829
100.927000,1822
100.927500,1795
100.928000,1794
100.928500,1773
100.929000,1766
100.929500,1773
100.930000,1806
100.930500,1846
100.931000,1849
100.931500,1860
100.932000,1853
100.932500,1820
100.933000,1801
100.933500,1811
100.934000,1808
100.934500,1767
100.935000,1745
100.935500,1729
100.936000,1717
100.936500,1730
100.937000,1772
100.937500,1783
100.938000,1779
100.938500,1788
100.939000,1790
100.939500,1783
100.940000,1791
100.940500,1796
100.941000,1776
100.941500,1762
100.942000,1779
100.942500,1799
100.943000,1789
100.943500,1819
100.944000,1827
100.944500,1820
100.945000,1815
100.945500,1825
100.946000,1810
100.946500,1795
100.947000,1802
100.947500,1798
100.948000,1780
100.948500,1779
100.949000,1796
100.949500,1787
100.950000,1774
100.950500,1791
100.951000,1802
100.951500,1789
100.952000,1808
100.952500,1814
100.953000,1805
100.953500,1805
100.954000,1819
100.954500,1800
100.955000,1784
100.955500,1783
100.956000,1783
100.956500,1769
100.957000,1779
100.957500,1807
100.958000,1798
100.958500,1800
100.959000,1816
100.959500,1817
100.960000,1804
100.960500,1803
100.961000,1811
100.961500,1810
100.962000,1813
100.962500,1833
100.963000,1840
100.963500,1819
100.964000,1830
100.964500,1825
100.965000,1808
100.965500,1799
100.966000,1817
100.966500,1819
100.967000,1841
100.967500,1887
100.968000,1910
100.968500,1894
100.969000,1894
100.969500,1890
100.970000,1863
100.970500,1822
100.971000,1790
100.971500,1735
100.972000,1673
100.972500,1665
100.973000,1681
100.973500,1707
100.974000,1734
100.974500,1769
100.975000,1760
100.975500,1761
100.976000,1771
100.976500,1776
100.977000,1771
100.977500,1775
100.978000,1802
100.978500,1802
100.979000,1798
100.979500,1803
100.980000,1803
100.980500,1780
100.981000,1798
100.981500,1787
100.982000,1778
100.982500,1779
100.983000,1806
100.983500,1816
100.984000,1804
100.984500,1809
100.985000,1820
100.985500,1801
100.986000,1804
100.986500,1841
100.987000,1874
100.987500,1896
100.988000,1919
100.988500,1926
100.989000,1905
100.989500,1884
100.990000,1874
100.990500,1844
100.991000,1791
100.991500,1741
100.992000,1698
100.992500,1670
100.993000,1690
100.993500,1726
100.994000,1738
100.994500,1751
100.995000,1768
100.995500,1775
100.996000,1764
100.996500,1777
100.997000,1779
100.997500,1771
100.998000,1776
100.998500,1804
100.999000,1794
100.999500,1794
101.000000,1803
101.000500,1808
101.001000,1794
101.001500,1794
101.002000,1816
101.002500,1803
101.003000,1795
101.003500,1810
101.004000,1811
101.004500,1797
101.005000,1801
101.005500,1804
101.006000,1787
101.006500,1783
101.007000,1806
101.007500,1808
101.008000,1826
101.008500,1848
101.009000,1863
101.009500,1875
101.010000,1902
101.010500,1933
101.011000,1927
101.011500,1901
101.012000,1882
101.012500,1853
101.013000,1798
101.013500,1777
101.014000,1740
101.014500,1706
101.015000,1690
101.015500,1702
101.016000,1721
101.016500,1724
101.017000,1759
101.017500,1774
101.018000,1759
101.018500,1755
101.019000,1773
101.019500,1765
101.020000,1764
101.020500,1779
101.021000,1791
101.021500,1780
101.022000,1798
101.022500,1804
101.023000,1810
101.023500,1841
101.024000,1918
101.024500,1965
101.025000,1960
101.025500,1961
101.026000,1947
101.026500,1905
101.027000,1869
101.027500,1843
101.028000,1781
101.028500,1704
101.029000,1677
101.029500,1691
101.030000,1712
101.030500,1757
101.031000,1815
101.031500,1813
101.032000,1786
101.032500,1786
101.033000,1779
101.033500,1730
101.034000,1709
101.034500,1712
101.035000,1721
101.035500,1725
101.036000,1755
101.036500,1762
101.037000,1768
101.037500,1782
101.038000,1779
101.038500,1761
101.039000,1765
101.039500,1786
101.040000,1786
101.040500,1780
101.041000,1799
101.041500,1804
101.042000,1793
101.042500,1817
101.043000,1814
101.043500,1804
101.044000,1804
101.044500,1826
101.045000,1832
101.045500,1814
101.046000,1823
101.046500,1826
101.047000,1812
101.047500,1809
101.048000,1835
101.048500,1834
101.049000,1816
101.049500,1823
101.050000,1836
101.050500,1829
101.051000,1838
101.051500,1875
101.052000,1909
101.052500,1939
101.053000,1955
101.053500,1961
101.054000,1930
101.054500,1928
101.055000,1902
101.055500,1851
101.056000,1783
101.056500,1715
101.057000,1624
101.057500,1594
101.058000,1630
101.058500,1675
101.059000,1697
101.059500,1710
101.060000,1731
101.060500,1725
101.061000,1729
101.061500,1744
101.062000,1760
101.062500,1750
101.063000,1762
101.063500,1784
101.064000,1780
101.064500,1779
101.065000,1804
101.065500,1815
101.066000,1804
101.066500,1817
101.067000,1831
101.067500,1823
101.068000,1826
101.068500,1841
101.069000,1828
101.069500,1813
101.070000,1812
101.070500,1811
101.071000,1786
101.071500,1794
101.072000,1790
101.072500,1789
101.073000,1797
101.073500,1816
101.074000,1825
101.074500,1823
101.075000,1832
101.075500,1842
101.076000,1833
101.076500,1834
101.077000,1862
101.077500,1862
101.078000,1849
101.078500,1853
101.079000,1840
101.079500,1823
101.080000,1818
101.080500,1835
101.081000,1821
101.081500,1800
101.082000,1797
101.082500,1787
101.083000,1767
101.083500,1751
101.084000,1756
101.084500,1735
101.085000,1725
101.085500,1752
101.086000,1757
101.086500,1757
101.087000,1777
101.087500,1787
101.088000,1772
101.088500,1764
101.089000,1782
101.089500,1779
101.090000,1781
101.090500,1804
101.091000,1817
101.091500,1806
101.092000,1834
101.092500,1832
101.093000,1827
101.093500,1823
101.094000,1845
101.094500,1851
101.095000,1837
101.095500,1863
101.096000,1869
101.096500,1842
101.097000,1828
101.097500,1838
101.098000,1825
101.098500,1823
101.099000,1839
101.099500,1835
101.100000,1802
101.100500,1761
101.101000,1767
101.101500,1759
101.102000,1760
101.102500,1773
101.103000,1771
101.103500,1731
101.104000,1722
101.104500,1715
101.105000,1711
101.105500,1720
101.106000,1769
101.106500,1774
101.107000,1790
101.107500,1801
101.108000,1806
101.108500,1794
101.109000,1791
101.109500,1805
101.110000,1802
101.110500,1799
101.111000,1822
101.111500,1847
101.112000,1850
101.112500,1858
101.113000,1861
101.113500,1839
101.114000,1823
101.114500,1837
101.115000,1841
101.115500,1809
101.116000,1811
101.116500,1808
101.117000,1789
101.117500,1789
101.118000,1814
101.118500,1812
101.119000,1812
101.119500,1825
101.120000,1840
101.120500,1839
101.121000,1869
101.121500,1881
101.122000,1884
101.122500,1884
101.123000,1887
101.123500,1861
101.124000,1802
101.124500,1767
101.125000,1736
101.125500,1709
101.126000,1699
101.126500,1713
101.127000,1718
101.127500,1725
101.128000,1739
101.128500,1738
101.129000,1710
101.129500,1699
101.130000,1725
101.130500,1730
101.131000,1745
101.131500,1782
101.132000,1804
101.132500,1801
101.133000,1816
101.133500,1819
101.134000,1805
101.134500,1804
101.135000,1822
101.135500,1816
101.136000,1808
101.136500,1819
101.137000,1828
101.137500,1821
101.138000,1828
101.138500,1862
101.139000,1855
101.139500,1840
101.140000,1842
101.140500,1837
101.141000,1814
101.141500,1815
101.142000,1832
101.142500,1810
101.143000,1782
101.143500,1780
101.144000,1786
101.144500,1779
101.145000,1799
101.145500,1794
101.146000,1788
101.146500,1796
101.147000,1828
101.147500,1820
101.148000,1820
101.148500,1828
101.149000,1834
101.149500,1803
101.150000,1798
101.150500,1775
101.151000,1737
101.151500,1723
101.152000,1744
101.152500,1771
101.153000,1774
101.153500,1803
101.154000,1816
101.154500,1793
101.155000,1777
101.155500,1793
101.156000,1783
101.156500,1789
101.157000,1824
101.157500,1843
101.158000,1841
101.158500,1843
101.159000,1862
101.159500,1851
101.160000,1831
101.160500,1825
101.161000,1809
101.161500,1764
101.162000,1752
101.162500,1751
101.163000,1750
101.163500,1763
101.164000,1802
101.164500,1809
101.165000,1802
101.165500,1794
101.166000,1778
101.166500,1756
101.167000,1755
101.167500,1780
101.168000,1788
101.168500,1793
101.169000,1814
101.169500,1840
101.170000,1839
101.170500,1864
101.171000,1874
101.171500,1861
101.172000,1851
101.172500,1854
101.173000,1830
101.173500,1802
101.174000,1787
101.174500,1770
101.175000,1751
101.175500,1759
101.176000,1788
101.176500,1783
101.177000,1782
101.177500,1790
101.178000,1787
101.178500,1773
101.179000,1793
101.179500,1784
101.180000,1767
101.180500,1756
101.181000,1781
101.181500,1807
101.182000,1830
101.182500,1864
101.183000,1874
101.183500,1858
101.184000,1851
101.184500,1869
101.185000,1850
101.185500,1813
101.186000,1803
101.186500,1789
101.187000,1763
101.187500,1757
101.188000,1791
101.188500,1798
101.189000,1794
101.189500,1800
101.190000,1802
101.190500,1788
101.191000,1789
101.191500,1791
101.192000,1770
101.192500,1747
101.193000,1743
101.193500,1749
101.194000,1750
101.194500,1786
101.195000,1801
101.195500,1795
101.196000,1803
101.196500,1834
101.197000,1835
101.197500,1835
101.198000,1853
101.198500,1870
101.199000,1856
101.199500,1859
101.200000,1846
101.200500,1805
101.201000,1756
101.201500,1732
101.202000,1730
101.202500,1736
101.203000,1767
101.203500,1768
101.204000,1750
101.204500,1750
101.205000,1777
101.205500,1773
101.206000,1771
101.206500,1780
101.207000,1784
101.207500,1773
101.208000,1780
101.208500,1815
101.209000,1819
101.209500,1827
101.210000,1846
101.210500,1863
101.211000,1867
101.211500,1911
101.212000,1928
101.212500,1906
101.213000,1887
101.213500,1888
101.214000,1874
101.214500,1828
101.215000,1803
101.215500,1766
101.216000,1702
101.216500,1651
101.217000,1655
101.217500,1680
101.218000,1719
101.218500,1768
101.219000,1797
101.219500,1785
101.220000,1775
101.220500,1796
101.221000,1792
101.221500,1794
101.222000,1817
101.222500,1826
101.223000,1812
101.223500,1815
101.224000,1806
101.224500,1783
101.225000,1765
101.225500,1757
101.226000,1729
101.226500,1740
101.227000,1770
101.227500,1799
101.228000,1798
101.228500,1801
101.229000,1816
101.229500,1816
101.230000,1817
101.230500,1833
101.231000,1842
101.231500,1822
101.232000,1827
101.232500,1838
101.233000,1824
101.233500,1815
101.234000,1819
101.234500,1807
101.235000,1777
101.235500,1791
101.236000,1798
101.236500,1775
101.237000,1767
101.237500,1785
101.238000,1778
101.238500,1778
101.239000,1801
101.239500,1812
101.240000,1802
101.240500,1793
101.241000,1811
101.241500,1802
101.242000,1796
101.242500,1810
101.243000,1808
101.243500,1794
101.244000,1805
101.244500,1806
101.245000,1799
101.245500,1799
101.246000,1813
101.246500,1816
101.247000,1799
101.247500,1810
101.248000,1814
101.248500,1804
101.249000,1795
101.249500,1814
101.250000,1804
101.250500,1797
101.251000,1822
101.251500,1850
101.252000,1854
101.252500,1864
101.253000,1900
101.253500,1895
101.254000,1881
101.254500,1890
101.255000,1901
101.255500,1869
101.256000,1864
101.256500,1815
101.257000,1773
101.257500,1752
101.258000,1770
101.258500,1781
101.259000,1750
101.259500,1745
101.260000,1722
101.260500,1682
101.261000,1660
101.261500,1691
101.262000,1716
101.262500,1751
101.263000,1779
101.263500,1787
101.264000,1775
101.264500,1767
101.265000,1784
101.265500,1793
101.266000,1797
101.266500,1815
101.267000,1824
101.267500,1821
101.268000,1821
101.268500,1831
101.269000,1823
101.269500,1817
101.270000,1818
101.270500,1818
101.271000,1793
101.271500,1798
101.272000,1822
101.272500,1828
101.273000,1827
101.273500,1842
101.274000,1853
101.274500,1844
101.275000,1872
101.275500,1880
101.276000,1863
101.276500,1845
101.277000,1853
101.277500,1832
101.278000,1807
101.278500,1802
101.279000,1785
101.279500,1757
101.280000,1752
101.280500,1768
101.281000,1746
101.281500,1720
101.282000,1730
101.282500,1731
101.283000,1718
101.283500,1728
101.284000,1751
101.284500,1746
101.285000,1761
101.285500,1778
101.286000,1785
101.286500,1763
101.287000,1776
101.287500,1785
101.288000,1778
101.288500,1785
101.289000,1816
101.289500,1821
101.290000,1823
101.290500,1841
101.291000,1849
101.291500,1842
101.292000,1866
101.292500,1855
101.293000,1832
101.293500,1817
101.294000,1826
101.294500,1829
101.295000,1801
101.295500,1795
101.296000,1792
101.296500,1787
101.297000,1800
101.297500,1831
101.298000,1816
101.298500,1810
101.299000,1803
101.299500,1797
101.300000,1761
101.300500,1745
101.301000,1761
101.301500,1758
101.302000,1761
101.302500,1771
101.303000,1773
101.303500,1751
101.304000,1788
101.304500,1788
101.305000,1807
101.305500,1817
101.306000,1841
101.306500,1848
101.307000,1827
101.307500,1827
101.308000,1833
101.308500,1818
101.309000,1795
101.309500,1787
101.310000,1755
101.310500,1733
101.311000,1754
101.311500,1793
101.312000,1811
101.312500,1831
101.313000,1854
101.313500,1847
101.314000,1856
101.314500,1881
101.315000,1890
101.315500,1876
101.316000,1867
101.316500,1858
101.317000,1814
101.317500,1790
101.318000,1785
101.318500,1754
101.319000,1712
101.319500,1718
101.320000,1736
101.320500,1733
101.321000,1735
101.321500,1748
101.322000,1747
101.322500,1755
101.323000,1788
101.323500,1807
101.324000,1800
101.324500,1818
101.325000,1821
101.325500,1811
101.326000,1817
101.326500,1833
101.327000,1844
101.327500,1822
101.328000,1817
101.328500,1809
101.329000,1796
101.329500,1793
101.330000,1806
101.330500,1793
101.331000,1780
101.331500,1783
101.332000,1782
101.332500,1780
101.333000,1793
101.333500,1813
101.334000,1800
101.334500,1795
101.335000,1805
101.335500,1819
101.336000,1800
101.336500,1799
101.337000,1822
101.337500,1813
101.338000,1798
101.338500,1811
101.339000,1820
101.339500,1814
101.340000,1827
101.340500,1831
101.341000,1801
101.341500,1778
101.342000,1787
101.342500,1804
101.343000,1793
101.343500,1801
101.344000,1807
101.344500,1783
101.345000,1763
101.345500,1775
101.346000,1769
101.346500,1757
101.347000,1775
101.347500,1783
101.348000,1775
101.348500,1770
101.349000,1795
101.349500,1804
101.350000,1824
101.350500,1842
101.351000,1851
101.351500,1846
101.352000,1859
101.352500,1883
101.353000,1883
101.353500,1880
101.354000,1879
101.354500,1837
101.355000,1782
101.355500,1801
101.356000,1832
101.356500,1831
101.357000,1818
101.357500,1812
101.358000,1785
101.358500,1774
101.359000,1775
101.359500,1778
101.360000,1755
101.360500,1733
101.361000,1732
101.361500,1717
101.362000,1723
101.362500,1744
101.363000,1750
101.363500,1737
101.364000,1741
101.364500,1763
101.365000,1763
101.365500,1762
101.366000,1781
101.366500,1786
101.367000,1767
101.367500,1783
101.368000,1795
101.368500,1790
101.369000,1794
101.369500,1815
101.370000,1811
101.370500,1808
101.371000,1830
101.371500,1858
101.372000,1871
101.372500,1894
101.373000,1929
101.373500,1919
101.374000,1914
101.374500,1918
101.375000,1907
101.375500,1854
101.376000,1806
101.376500,1771
101.377000,1715
101.377500,1695
101.378000,1731
101.378500,1781
101.379000,1793
101.379500,1810
101.380000,1809
101.380500,1786
101.381000,1779
101.381500,1789
101.382000,1771
101.382500,1754
101.383000,1758
101.383500,1741
101.384000,1703
101.384500,1705
101.385000,1747
101.385500,1761
101.386000,1767
101.386500,1782
101.387000,1792
101.387500,1778
101.388000,1786
101.388500,1792
101.389000,1790
101.389500,1787
101.390000,1809
101.390500,1785
101.391000,1793
101.391500,1804
101.392000,1810
101.392500,1807
101.393000,1813
101.393500,1844
101.394000,1856
101.394500,1855
101.395000,1871
101.395500,1876
101.396000,1852
101.396500,1850
101.397000,1846
101.397500,1818
101.398000,1794
101.398500,1787
101.399000,1781
101.399500,1754
101.400000,1766
101.400500,1782
101.401000,1779
101.401500,1777
101.402000,1791
101.402500,1776
101.403000,1778
101.403500,1791
101.404000,1801
101.404500,1795
101.405000,1790
101.405500,1793
101.406000,1779
101.406500,1779
101.407000,1794
101.407500,1801
101.408000,1790
101.408500,1796
101.409000,1813
101.409500,1815
101.410000,1822
101.410500,1840
101.411000,1849
101.411500,1841
101.412000,1869
101.412500,1897
101.413000,1885
101.413500,1857
101.414000,1856
101.414500,1825
101.415000,1818
101.415500,1833
101.416000,1816
101.416500,1750
101.417000,1689
101.417500,1681
101.418000,1676
101.418500,1703
101.419000,1750
101.419500,1785
101.420000,1773
101.420500,1793
101.421000,1787
101.421500,1778
101.422000,1771
101.422500,1787
101.423000,1799
101.423500,1786
101.424000,1802
101.424500,1816
101.425000,1815
101.425500,1808
101.426000,1823
101.426500,1816
101.427000,1808
101.427500,1811
101.428000,1806
101.428500,1790
101.429000,1778
101.429500,1794
101.430000,1785
101.430500,1785
101.431000,1803
101.431500,1812
101.432000,1806
101.432500,1813
101.433000,1830
101.433500,1822
101.434000,1817
101.434500,1842
101.435000,1850
101.435500,1831
101.436000,1846
101.436500,1864
101.437000,1866
101.437500,1858
101.438000,1862
101.438500,1842
101.439000,1823
101.439500,1808
101.440000,1795
101.440500,1753
101.441000,1740
101.441500,1712
101.442000,1692
101.442500,1702
101.443000,1746
101.443500,1777
101.444000,1779
101.444500,1789
101.445000,1802
101.445500,1784
101.446000,1770
101.446500,1785
101.447000,1774
101.447500,1762
101.448000,1774
101.448500,1782
101.449000,1780
101.449500,1783
101.450000,1820
101.450500,1830
101.451000,1834
101.451500,1857
101.452000,1906
101.452500,1938
101.453000,1959
101.453500,1966
101.454000,1931
101.454500,1891
101.455000,1870
101.455500,1847
101.456000,1795
101.456500,1761
101.457000,1710
101.457500,1662
101.458000,1655
101.458500,1693
101.459000,1704
101.459500,1713
101.460000,1739
101.460500,1753
101.461000,1747
101.461500,1751
101.462000,1768
101.462500,1758
101.463000,1764
101.463500,1783
101.464000,1795
101.464500,1778
101.465000,1795
101.465500,1799
101.466000,1787
101.466500,1785
101.467000,1802
101.467500,1803
101.468000,1793
101.468500,1804
101.469000,1811
101.469500,1800
101.470000,1800
101.470500,1816
101.471000,1810
101.471500,1803
101.472000,1833
101.472500,1862
101.473000,1863
101.473500,1867
101.474000,1881
101.474500,1861
101.475000,1848
101.475500,1853
101.476000,1834
101.476500,1783
101.477000,1762
101.477500,1751
101.478000,1736
101.478500,1747
101.479000,1782
101.479500,1784
101.480000,1784
101.480500,1791
101.481000,1798
101.481500,1777
101.482000,1785
101.482500,1786
101.483000,1777
101.483500,1775
101.484000,1795
101.484500,1806
101.485000,1793
101.485500,1810
101.486000,1821
101.486500,1814
101.487000,1813
101.487500,1826
101.488000,1816
101.488500,1804
101.489000,1813
101.489500,1817
101.490000,1811
101.490500,1802
101.491000,1810
101.491500,1801
101.492000,1804
101.492500,1831
101.493000,1841
101.493500,1826
101.494000,1810
101.494500,1811
101.495000,1790
101.495500,1789
101.496000,1819
101.496500,1851
101.497000,1879
101.497500,1909
101.498000,1926
101.498500,1905
101.499000,1880
101.499500,1870
101.500000,1840
101.500500,1788
101.501000,1748
101.501500,1689
101.502000,1648
101.502500,1664
101.503000,1701
101.503500,1720
101.504000,1726
101.504500,1744
101.505000,1746
101.505500,1734
101.506000,1742
101.506500,1770
101.507000,1768
101.507500,1774
101.508000,1794
101.508500,1800
101.509000,1790
101.509500,1810
101.510000,1835
101.510500,1835
101.511000,1837
101.511500,1852
101.512000,1859
101.512500,1836
101.513000,1853
101.513500,1853
101.514000,1830
101.514500,1805
101.515000,1814
101.515500,1792
101.516000,1773
101.516500,1779
101.517000,1787
101.517500,1772
101.518000,1758
101.518500,1773
101.519000,1757
101.519500,1746
101.520000,1777
101.520500,1795
101.521000,1798
101.521500,1808
101.522000,1828
101.522500,1815
101.523000,1807
101.523500,1829
101.524000,1829
101.524500,1810
101.525000,1808
101.525500,1809
101.526000,1800
101.526500,1794
101.527000,1803
101.527500,1791
101.528000,1773
101.528500,1778
101.529000,1792
101.529500,1789
101.530000,1795
101.530500,1821
101.531000,1817
101.531500,1803
101.532000,1806
101.532500,1804
101.533000,1791
101.533500,1799
101.534000,1812
101.534500,1808
101.535000,1813
101.535500,1849
101.536000,1854
101.536500,1826
101.537000,1831
101.537500,1832
101.538000,1817
101.538500,1801
101.539000,1812
101.539500,1800
101.540000,1792
101.540500,1805
101.541000,1819
101.541500,1812
101.542000,1793
101.542500,1767
101.543000,1719
101.543500,1700
101.544000,1728
101.544500,1757
101.545000,1768
101.545500,1783
101.546000,1797
101.546500,1776
101.547000,1762
101.547500,1772
101.548000,1779
101.548500,1772
101.549000,1794
101.549500,1804
101.550000,1796
101.550500,1790
101.551000,1812
101.551500,1813
101.552000,1813
101.552500,1831
101.553000,1835
101.553500,1815
101.554000,1811
101.554500,1829
101.555000,1817
101.555500,1811
101.556000,1822
101.556500,1821
101.557000,1809
101.557500,1812
101.558000,1828
101.558500,1811
101.559000,1805
101.559500,1810
101.560000,1803
101.560500,1770
101.561000,1775
101.561500,1778
101.562000,1777
101.562500,1784
101.563000,1814
101.563500,1801
101.564000,1798
101.564500,1806
101.565000,1816
101.565500,1795
101.566000,1791
101.566500,1805
101.567000,1791
101.567500,1783
101.568000,1791
101.568500,1787
101.569000,1771
101.569500,1778
101.570000,1800
101.570500,1796
101.571000,1804
101.571500,1827
101.572000,1838
101.572500,1840
101.573000,1886
101.573500,1919
101.574000,1924
101.574500,1914
101.575000,1922
101.575500,1905
101.576000,1885
101.576500,1867
101.577000,1819
101.577500,1744
101.578000,1697
101.578500,1703
101.579000,1707
101.579500,1725
101.580000,1753
101.580500,1752
101.581000,1733
101.581500,1752
101.582000,1753
101.582500,1743
101.583000,1747
101.583500,1766
101.584000,1779
101.584500,1769
101.585000,1775
101.585500,1771
101.586000,1761
101.586500,1764
101.587000,1789
101.587500,1786
101.588000,1784
101.588500,1797
101.589000,1805
101.589500,1796
101.590000,1791
101.590500,1812
101.591000,1806
101.591500,1801
101.592000,1817
101.592500,1823
101.593000,1817
101.593500,1828
101.594000,1826
101.594500,1811
101.595000,1806
101.595500,1829
101.596000,1838
101.596500,1818
101.597000,1821
101.597500,1829
101.598000,1823
101.598500,1843
101.599000,1893
101.599500,1893
101.600000,1878
101.600500,1876
101.601000,1870
101.601500,1834
101.602000,1803
101.602500,1784
101.603000,1730
101.603500,1687
101.604000,1688
101.604500,1719
101.605000,1734
101.605500,1758
101.606000,1784
101.606500,1771
101.607000,1762
101.607500,1769
101.608000,1772
101.608500,1754
101.609000,1771
101.609500,1780
101.610000,1773
101.610500,1776
101.611000,1795
101.611500,1793
101.612000,1793
101.612500,1814
101.613000,1819
101.613500,1810
101.614000,1805
101.614500,1822
101.615000,1813
101.615500,1809
101.616000,1820
101.616500,1820
101.617000,1801
101.617500,1809
101.618000,1831
101.618500,1822
101.619000,1816
101.619500,1824
101.620000,1820
101.620500,1800
101.621000,1809
101.621500,1819
101.622000,1823
101.622500,1827
101.623000,1844
101.623500,1846
101.624000,1840
101.624500,1856
101.625000,1864
101.625500,1836
101.626000,1814
101.626500,1802
101.627000,1775
101.627500,1745
101.628000,1738
101.628500,1733
101.629000,1727
101.629500,1760
101.630000,1766
101.630500,1756
101.631000,1755
101.631500,1774
101.632000,1785
101.632500,1776
101.633000,1784
101.633500,1797
101.634000,1789
101.634500,1786
101.635000,1806
101.635500,1784
101.636000,1796
101.636500,1818
101.637000,1832
101.637500,1832
101.638000,1851
101.638500,1886
101.639000,1883
101.639500,1869
101.640000,1874
101.640500,1867
101.641000,1825
101.641500,1808
101.642000,1776
101.642500,1731
101.643000,1717
101.643500,1752
101.644000,1778
101.644500,1781
101.645000,1809
101.645500,1818
101.646000,1799
101.646500,1781
101.647000,1799
101.647500,1790
101.648000,1776
101.648500,1779
101.649000,1764
101.649500,1743
101.650000,1746
101.650500,1776
101.651000,1778
101.651500,1780
101.652000,1796
101.652500,1806
101.653000,1790
101.653500,1793
101.654000,1807
101.654500,1795
101.655000,1791
101.655500,1813
101.656000,1832
101.656500,1814
101.657000,1835
101.657500,1840
101.658000,1820
101.658500,1818
101.659000,1839
101.659500,1836
101.660000,1847
101.660500,1882
101.661000,1889
101.661500,1866
101.662000,1861
101.662500,1881
101.663000,1860
101.663500,1833
101.664000,1814
101.664500,1763
101.665000,1694
101.665500,1679
101.666000,1696
101.666500,1719
101.667000,1750
101.667500,1784
101.668000,1780
101.668500,1764
101.669000,1766
101.669500,1768
101.670000,1761
101.670500,1759
101.671000,1779
101.671500,1772
101.672000,1770
101.672500,1786
101.673000,1795
101.673500,1790
101.674000,1817
101.674500,1816
101.675000,1809
101.675500,1804
101.676000,1817
101.676500,1818
101.677000,1794
101.677500,1797
101.678000,1810
101.678500,1812
101.679000,1827
101.679500,1863
101.680000,1878
101.680500,1885
101.681000,1915
101.681500,1923
101.682000,1902
101.682500,1893
101.683000,1903
101.683500,1873
101.684000,1832
101.684500,1790
101.685000,1755
101.685500,1705
101.686000,1717
101.686500,1734
101.687000,1731
101.687500,1722
101.688000,1728
101.688500,1721
101.689000,1707
101.689500,1733
101.690000,1755
101.690500,1750
101.691000,1746
101.691500,1768
101.692000,1767
101.692500,1774
101.693000,1788
101.693500,1801
101.694000,1786
101.694500,1803
101.695000,1805
101.695500,1797
101.696000,1793
101.696500,1813
101.697000,1832
101.697500,1833
101.698000,1854
101.698500,1875
101.699000,1866
101.699500,1861
101.700000,1878
101.700500,1858
101.701000,1828
101.701500,1812
101.702000,1784
101.702500,1752
101.703000,1749
101.703500,1769
101.704000,1763
101.704500,1765
101.705000,1788
101.705500,1791
101.706000,1773
101.706500,1782
101.707000,1797
101.707500,1788
101.708000,1783
101.708500,1795
101.709000,1796
101.709500,1775
101.710000,1793
101.710500,1807
101.711000,1812
101.711500,1816
101.712000,1832
101.712500,1841
101.713000,1817
101.713500,1820
101.714000,1818
101.714500,1802
101.715000,1796
101.715500,1807
101.716000,1782
101.716500,1768
101.717000,1786
101.717500,1795
101.718000,1786
101.718500,1801
101.719000,1818
101.719500,1801
101.720000,1793
101.720500,1803
101.721000,1789
101.721500,1786
101.722000,1797
101.722500,1800
101.723000,1790
101.723500,1788
101.724000,1805
101.724500,1803
101.725000,1798
101.725500,1811
101.726000,1814
101.726500,1796
101.727000,1816
101.727500,1810
101.728000,1806
101.728500,1815
101.729000,1833
101.729500,1839
101.730000,1813
101.730500,1814
101.731000,1821
101.731500,1806
101.732000,1797
101.732500,1807
101.733000,1782
101.733500,1760
101.734000,1781
101.734500,1794
101.735000,1793
101.735500,1787
101.736000,1803
101.736500,1787
101.737000,1782
101.737500,1810
101.738000,1825
101.738500,1830
101.739000,1885
101.739500,1923
101.740000,1925
