# Subject: 
# Trial: 
# Notes: 
# Muscles: Ch1
# fs=2000 Hz, nch=1, vref=3.3 V
t_s,ch1_code
60.070000,1799
60.070500,1785
60.071000,1781
60.071500,1798
60.072000,1788
60.072500,1786
60.073000,1796
60.073500,1804
60.074000,1792
60.074500,1792
60.075000,1806
60.075500,1817
60.076000,1800
60.076500,1787
60.077000,1796
60.077500,1781
60.078000,1767
60.078500,1774
60.079000,1778
60.079500,1767
60.080000,1760
60.080500,1773
60.081000,1775
60.081500,1763
60.082000,1766
60.082500,1791
60.083000,1780
60.083500,1789
60.084000,1805
60.084500,1808
60.085000,1794
60.085500,1786
60.086000,1795
60.086500,1793
60.087000,1773
60.087500,1771
60.088000,1798
60.088500,1783
60.089000,1788
60.089500,1798
60.090000,1807
60.090500,1793
60.091000,1796
60.091500,1814
60.092000,1821
60.092500,1807
60.093000,1800
60.093500,1813
60.094000,1809
60.094500,1796
60.095000,1811
60.095500,1813
60.096000,1803
60.096500,1793
60.097000,1805
60.097500,1808
60.098000,1785
60.098500,1775
60.099000,1789
60.099500,1793
60.100000,1775
60.100500,1781
60.101000,1795
60.101500,1780
60.102000,1776
60.102500,1789
60.103000,1798
60.103500,1786
60.104000,1785
60.104500,1801
60.105000,1804
60.105500,1788
60.106000,1787
60.106500,1799
60.107000,1787
60.107500,1784
60.108000,1796
60.108500,1792
60.109000,1772
60.109500,1767
60.110000,1788
60.110500,1793
60.111000,1782
60.111500,1779
60.112000,1791
60.112500,1783
60.113000,1782
60.113500,1800
60.114000,1810
60.114500,1795
60.115000,1787
60.115500,1796
60.116000,1801
60.116500,1782
60.117000,1785
60.117500,1807
60.118000,1797
60.118500,1796
60.119000,1802
60.119500,1808
60.120000,1794
60.120500,1794
60.121000,1809
60.121500,1807
60.122000,1785
60.122500,1792
60.123000,1801
60.123500,1786
60.124000,1780
60.124500,1793
60.125000,1799
60.125500,1787
60.126000,1780
60.126500,1793
60.127000,1798
60.127500,1780
60.128000,1791
60.128500,1793
60.129000,1778
60.129500,1771
60.130000,1788
60.130500,1801
60.131000,1788
60.131500,1780
60.132000,1798
60.132500,1806
60.133000,1793
60.133500,1803
60.134000,1817
60.134500,1809
60.135000,1807
60.135500,1812
60.136000,1813
60.136500,1792
60.137000,1785
60.137500,1803
60.138000,1801
60.138500,1783
60.139000,1780
60.139500,1789
60.140000,1787
60.140500,1779
60.141000,1788
60.141500,1784
60.142000,1768
60.142500,1760
60.143000,1775
60.143500,1781
60.144000,1763
60.144500,1773
60.145000,1783
60.145500,1772
60.146000,1772
60.146500,1788
60.147000,1803
60.147500,1798
60.148000,1805
60.148500,1820
60.149000,1818
60.149500,1794
60.150000,1802
60.150500,1808
60.151000,1801
60.151500,1792
60.152000,1805
60.152500,1813
60.153000,1800
60.153500,1793
60.154000,1808
60.154500,1792
60.155000,1793
60.155500,1807
60.156000,1811
60.156500,1795
60.157000,1787
60.157500,1797
60.158000,1797
60.158500,1779
60.159000,1771
60.159500,1785
60.160000,1781
60.160500,1773
60.161000,1786
60.161500,1790
60.162000,1780
60.162500,1778
60.163000,1798
60.163500,1802
60.164000,1788
60.164500,1782
60.165000,1799
60.165500,1790
60.166000,1784
60.166500,1792
60.167000,1796
60.167500,1786
60.168000,1778
60.168500,1789
60.169000,1793
60.169500,1778
60.170000,1787
60.170500,1801
60.171000,1790
60.171500,1787
60.172000,1798
60.172500,1802
60.173000,1785
60.173500,1777
60.174000,1790
60.174500,1798
60.175000,1785
60.175500,1802
60.176000,1799
60.176500,1787
60.177000,1782
60.177500,1804
60.178000,1810
60.178500,1800
60.179000,1798
60.179500,1811
60.180000,1812
60.180500,1790
60.181000,1787
60.181500,1796
60.182000,1782
60.182500,1776
60.183000,1787
60.183500,1791
60.184000,1780
60.184500,1776
60.185000,1795
60.185500,1801
60.186000,1784
60.186500,1788
60.187000,1802
60.187500,1794
60.188000,1783
60.188500,1791
60.189000,1795
60.189500,1785
60.190000,1785
60.190500,1798
60.191000,1805
60.191500,1781
60.192000,1782
60.192500,1799
60.193000,1789
60.193500,1782
60.194000,1796
60.194500,1802
60.195000,1789
60.195500,1789
60.196000,1808
60.196500,1813
60.197000,1798
60.197500,1808
60.198000,1810
60.198500,1794
60.199000,1784
60.199500,1792
60.200000,1798
60.200500,1782
60.201000,1772
60.201500,1784
60.202000,1786
60.202500,1763
60.203000,1766
60.203500,1783
60.204000,1778
60.204500,1775
60.205000,1788
60.205500,1793
60.206000,1781
60.206500,1776
60.207000,1794
60.207500,1800
60.208000,1784
60.208500,1806
60.209000,1813
60.209500,1805
60.210000,1800
60.210500,1810
60.211000,1813
60.211500,1797
60.212000,1791
60.212500,1808
60.213000,1809
60.213500,1791
60.214000,1801
60.214500,1801
60.215000,1796
60.215500,1789
60.216000,1802
60.216500,1805
60.217000,1792
60.217500,1790
60.218000,1805
60.218500,1807
60.219000,1788
60.219500,1785
60.220000,1800
60.220500,1788
60.221000,1781
60.221500,1790
60.222000,1796
60.222500,1778
60.223000,1776
60.223500,1794
60.224000,1795
60.224500,1777
60.225000,1778
60.225500,1790
60.226000,1780
60.226500,1772
60.227000,1784
60.227500,1789
60.228000,1775
60.228500,1767
60.229000,1785
60.229500,1768
60.230000,1778
60.230500,1797
60.231000,1806
60.231500,1801
60.232000,1803
60.232500,1817
60.233000,1823
60.233500,1807
60.234000,1797
60.234500,1814
60.235000,1794
60.235500,1797
60.236000,1806
60.236500,1807
60.237000,1794
60.237500,1792
60.238000,1799
60.238500,1800
60.239000,1783
60.239500,1776
60.240000,1789
60.240500,1774
60.241000,1778
60.241500,1785
60.242000,1789
60.242500,1780
60.243000,1777
60.243500,1793
60.244000,1796
60.244500,1786
60.245000,1777
60.245500,1794
60.246000,1772
60.246500,1773
60.247000,1784
60.247500,1786
60.248000,1777
60.248500,1768
60.249000,1781
60.249500,1784
60.250000,1781
60.250500,1776
60.251000,1808
60.251500,1797
60.252000,1806
60.252500,1820
60.253000,1820
60.253500,1806
60.254000,1801
60.254500,1810
60.255000,1818
60.255500,1806
60.256000,1797
60.256500,1808
60.257000,1791
60.257500,1792
60.258000,1797
60.258500,1794
60.259000,1781
60.259500,1773
60.260000,1784
60.260500,1789
60.261000,1777
60.261500,1770
60.262000,1790
60.262500,1795
60.263000,1781
60.263500,1792
60.264000,1801
60.264500,1789
60.265000,1785
60.265500,1800
60.266000,1807
60.266500,1788
60.267000,1784
60.267500,1797
60.268000,1800
60.268500,1777
60.269000,1787
60.269500,1789
60.270000,1783
60.270500,1781
60.271000,1795
60.271500,1799
60.272000,1788
60.272500,1785
60.273000,1805
60.273500,1814
60.274000,1800
60.274500,1813
60.275000,1823
60.275500,1806
60.276000,1801
60.276500,1809
60.277000,1808
60.277500,1794
60.278000,1784
60.278500,1796
60.279000,1783
60.279500,1781
60.280000,1788
60.280500,1796
60.281000,1783
60.281500,1775
60.282000,1789
60.282500,1793
60.283000,1775
60.283500,1768
60.284000,1785
60.284500,1775
60.285000,1773
60.285500,1785
60.286000,1791
60.286500,1780
60.287000,1774
60.287500,1789
60.288000,1798
60.288500,1787
60.289000,1786
60.289500,1804
60.290000,1795
60.290500,1791
60.291000,1807
60.291500,1808
60.292000,1798
60.292500,1791
60.293000,1807
60.293500,1810
60.294000,1794
60.294500,1791
60.295000,1810
60.295500,1799
60.296000,1794
60.296500,1801
60.297000,1805
60.297500,1797
60.298000,1787
60.298500,1800
60.299000,1800
60.299500,1782
60.300000,1776
60.300500,1781
60.301000,1762
60.301500,1753
60.302000,1765
60.302500,1771
60.303000,1763
60.303500,1762
60.304000,1775
60.304500,1785
60.305000,1776
60.305500,1790
60.306000,1821
60.306500,1814
60.307000,1813
60.307500,1818
60.308000,1816
60.308500,1799
60.309000,1790
60.309500,1800
60.310000,1809
60.310500,1789
60.311000,1787
60.311500,1801
60.312000,1794
60.312500,1785
60.313000,1802
60.313500,1804
60.314000,1791
60.314500,1788
60.315000,1804
60.315500,1807
60.316000,1798
60.316500,1792
60.317000,1806
60.317500,1791
60.318000,1787
60.318500,1801
60.319000,1804
60.319500,1790
60.320000,1786
60.320500,1793
60.321000,1797
60.321500,1780
60.322000,1777
60.322500,1796
60.323000,1787
60.323500,1777
60.324000,1781
60.324500,1786
60.325000,1773
60.325500,1771
60.326000,1788
60.326500,1789
60.327000,1779
60.327500,1772
60.328000,1792
60.328500,1787
60.329000,1786
60.329500,1802
60.330000,1813
60.330500,1798
60.331000,1794
60.331500,1805
60.332000,1813
60.332500,1798
60.333000,1792
60.333500,1807
60.334000,1801
60.334500,1792
60.335000,1805
60.335500,1810
60.336000,1798
60.336500,1789
60.337000,1803
60.337500,1809
60.338000,1790
60.338500,1782
60.339000,1795
60.339500,1783
60.340000,1779
60.340500,1789
60.341000,1795
60.341500,1782
60.342000,1771
60.342500,1784
60.343000,1789
60.343500,1775
60.344000,1772
60.344500,1787
60.345000,1795
60.345500,1780
60.346000,1794
60.346500,1794
60.347000,1784
60.347500,1781
60.348000,1794
60.348500,1801
60.349000,1786
60.349500,1780
60.350000,1802
60.350500,1802
60.351000,1784
60.351500,1791
60.352000,1812
60.352500,1806
60.353000,1802
60.353500,1811
60.354000,1816
60.354500,1800
60.355000,1800
60.355500,1814
60.356000,1815
60.356500,1790
60.357000,1804
60.357500,1804
60.358000,1783
60.358500,1770
60.359000,1778
60.359500,1782
60.360000,1769
60.360500,1766
60.361000,1779
60.361500,1784
60.362000,1772
60.362500,1771
60.363000,1794
60.363500,1799
60.364000,1803
60.364500,1813
60.365000,1817
60.365500,1799
60.366000,1793
60.366500,1801
60.367000,1805
60.367500,1788
60.368000,1787
60.368500,1799
60.369000,1788
60.369500,1778
60.370000,1797
60.370500,1799
60.371000,1794
60.371500,1785
60.372000,1804
60.372500,1809
60.373000,1791
60.373500,1785
60.374000,1804
60.374500,1798
60.375000,1792
60.375500,1807
60.376000,1808
60.376500,1792
60.377000,1786
60.377500,1800
60.378000,1802
60.378500,1783
60.379000,1771
60.379500,1785
60.380000,1781
60.380500,1766
60.381000,1778
60.381500,1783
60.382000,1772
60.382500,1770
60.383000,1783
60.383500,1791
60.384000,1782
60.384500,1787
60.385000,1815
60.385500,1803
60.386000,1797
60.386500,1803
60.387000,1807
60.387500,1793
60.388000,1786
60.388500,1795
60.389000,1796
60.389500,1783
60.390000,1787
60.390500,1804
60.391000,1794
60.391500,1787
60.392000,1799
60.392500,1805
60.393000,1795
60.393500,1791
60.394000,1804
60.394500,1809
60.395000,1794
60.395500,1792
60.396000,1806
60.396500,1777
60.397000,1783
60.397500,1797
60.398000,1797
60.398500,1781
60.399000,1775
60.399500,1786
60.400000,1796
60.400500,1777
60.401000,1780
60.401500,1796
60.402000,1786
60.402500,1784
60.403000,1796
60.403500,1801
60.404000,1788
60.404500,1780
60.405000,1799
60.405500,1800
60.406000,1786
60.406500,1781
60.407000,1794
60.407500,1782
60.408000,1780
60.408500,1791
60.409000,1790
60.409500,1775
60.410000,1771
60.410500,1785
60.411000,1795
60.411500,1781
60.412000,1780
60.412500,1798
60.413000,1805
60.413500,1791
60.414000,1814
60.414500,1813
60.415000,1810
60.415500,1812
60.416000,1824
60.416500,1819
60.417000,1802
60.417500,1792
60.418000,1797
60.418500,1797
60.419000,1778
60.419500,1786
60.420000,1792
60.420500,1780
60.421000,1772
60.421500,1781
60.422000,1788
60.422500,1777
60.423000,1774
60.423500,1788
60.424000,1797
60.424500,1782
60.425000,1784
60.425500,1806
60.426000,1802
60.426500,1792
60.427000,1802
60.427500,1803
60.428000,1792
60.428500,1786
60.429000,1798
60.429500,1798
60.430000,1788
60.430500,1783
60.431000,1800
60.431500,1789
60.432000,1785
60.432500,1796
60.433000,1804
60.433500,1796
60.434000,1791
60.434500,1804
60.435000,1812
60.435500,1800
60.436000,1796
60.436500,1808
60.437000,1788
60.437500,1792
60.438000,1802
60.438500,1800
60.439000,1785
60.439500,1776
60.440000,1794
60.440500,1796
60.441000,1782
60.441500,1774
60.442000,1787
60.442500,1776
60.443000,1775
60.443500,1787
60.444000,1790
60.444500,1781
60.445000,1778
60.445500,1790
60.446000,1799
60.446500,1781
60.447000,1780
60.447500,1800
60.448000,1806
60.448500,1782
60.449000,1780
60.449500,1789
60.450000,1784
60.450500,1775
60.451000,1790
60.451500,1793
60.452000,1778
60.452500,1770
60.453000,1790
60.453500,1797
60.454000,1785
60.454500,1821
60.455000,1828
60.455500,1813
60.456000,1798
60.456500,1805
60.457000,1809
60.457500,1808
60.458000,1804
60.458500,1819
60.459000,1816
60.459500,1796
60.460000,1788
60.460500,1800
60.461000,1789
60.461500,1778
60.462000,1789
60.462500,1792
60.463000,1780
60.463500,1777
60.464000,1792
60.464500,1797
60.465000,1791
60.465500,1781
60.466000,1798
60.466500,1790
60.467000,1784
60.467500,1799
60.468000,1799
60.468500,1784
60.469000,1782
60.469500,1793
60.470000,1804
60.470500,1786
60.471000,1780
60.471500,1792
60.472000,1782
60.472500,1780
60.473000,1793
60.473500,1795
60.474000,1783
60.474500,1779
60.475000,1799
60.475500,1803
60.476000,1788
60.476500,1789
60.477000,1812
60.477500,1816
60.478000,1804
60.478500,1807
60.479000,1804
60.479500,1789
60.480000,1782
60.480500,1797
60.481000,1801
60.481500,1782
60.482000,1776
60.482500,1782
60.483000,1776
60.483500,1768
60.484000,1777
60.484500,1778
60.485000,1770
60.485500,1761
60.486000,1778
60.486500,1789
60.487000,1780
60.487500,1794
60.488000,1809
60.488500,1799
60.489000,1793
60.489500,1806
60.490000,1820
60.490500,1804
60.491000,1798
60.491500,1809
60.492000,1808
60.492500,1789
60.493000,1797
60.493500,1801
60.494000,1788
60.494500,1787
60.495000,1801
60.495500,1813
60.496000,1799
60.496500,1786
60.497000,1803
60.497500,1813
60.498000,1792
60.498500,1799
60.499000,1801
60.499500,1789
60.500000,1782
60.500500,1790
60.501000,1794
60.501500,1773
60.502000,1771
60.502500,1788
60.503000,1793
60.503500,1770
60.504000,1773
60.504500,1788
60.505000,1787
60.505500,1789
60.506000,1809
60.506500,1819
60.507000,1805
60.507500,1797
60.508000,1814
60.508500,1810
60.509000,1790
60.509500,1803
60.510000,1804
60.510500,1793
60.511000,1789
60.511500,1798
60.512000,1804
60.512500,1791
60.513000,1789
60.513500,1803
60.514000,1808
60.514500,1793
60.515000,1816
60.515500,1810
60.516000,1800
60.516500,1791
60.517000,1801
60.517500,1811
60.518000,1787
60.518500,1782
60.519000,1792
60.519500,1787
60.520000,1762
60.520500,1754
60.521000,1768
60.521500,1756
60.522000,1753
60.522500,1764
60.523000,1774
60.523500,1767
60.524000,1769
60.524500,1782
60.525000,1801
60.525500,1798
60.526000,1801
60.526500,1813
60.527000,1799
60.527500,1789
60.528000,1794
60.528500,1790
60.529000,1778
60.529500,1788
60.530000,1817
60.530500,1824
60.531000,1805
60.531500,1796
60.532000,1814
60.532500,1808
60.533000,1807
60.533500,1817
60.534000,1815
60.534500,1798
60.535000,1792
60.535500,1810
60.536000,1818
60.536500,1800
60.537000,1796
60.537500,1811
60.538000,1791
60.538500,1785
60.539000,1789
60.539500,1792
60.540000,1779
60.540500,1773
60.541000,1785
60.541500,1789
60.542000,1772
60.542500,1769
60.543000,1789
60.543500,1783
60.544000,1782
60.544500,1791
60.545000,1797
60.545500,1787
60.546000,1787
60.546500,1804
60.547000,1807
60.547500,1790
60.548000,1783
60.548500,1800
60.549000,1783
60.549500,1781
60.550000,1790
60.550500,1792
60.551000,1783
60.551500,1777
60.552000,1787
60.552500,1795
60.553000,1782
60.553500,1777
60.554000,1797
60.554500,1790
60.555000,1793
60.555500,1816
60.556000,1818
60.556500,1807
60.557000,1801
60.557500,1818
60.558000,1815
60.558500,1795
60.559000,1787
60.559500,1800
60.560000,1780
60.560500,1781
60.561000,1789
60.561500,1793
60.562000,1781
60.562500,1778
60.563000,1793
60.563500,1802
60.564000,1786
60.564500,1780
60.565000,1800
60.565500,1794
60.566000,1785
60.566500,1791
60.567000,1797
60.567500,1781
60.568000,1777
60.568500,1788
60.569000,1793
60.569500,1779
60.570000,1778
60.570500,1798
60.571000,1792
60.571500,1784
60.572000,1796
60.572500,1796
60.573000,1783
60.573500,1779
60.574000,1794
60.574500,1800
60.575000,1786
60.575500,1780
60.576000,1795
60.576500,1788
60.577000,1783
60.577500,1799
60.578000,1798
60.578500,1790
60.579000,1794
60.579500,1812
60.580000,1827
60.580500,1802
60.581000,1796
60.581500,1813
60.582000,1799
60.582500,1790
60.583000,1799
60.583500,1794
60.584000,1778
60.584500,1772
60.585000,1785
60.585500,1789
60.586000,1778
60.586500,1772
60.587000,1789
60.587500,1780
60.588000,1780
60.588500,1795
60.589000,1807
60.589500,1800
60.590000,1802
60.590500,1807
60.591000,1808
60.591500,1785
60.592000,1774
60.592500,1793
60.593000,1786
60.593500,1780
60.594000,1790
60.594500,1793
60.595000,1789
60.595500,1779
60.596000,1796
60.596500,1805
60.597000,1800
60.597500,1804
60.598000,1816
60.598500,1797
60.599000,1788
60.599500,1794
60.600000,1805
60.600500,1789
60.601000,1783
60.601500,1793
60.602000,1799
60.602500,1784
60.603000,1776
60.603500,1790
60.604000,1785
60.604500,1779
60.605000,1793
60.605500,1800
60.606000,1795
60.606500,1792
60.607000,1799
60.607500,1800
60.608000,1780
60.608500,1777
60.609000,1792
60.609500,1788
60.610000,1786
60.610500,1799
60.611000,1807
60.611500,1798
60.612000,1795
60.612500,1807
60.613000,1810
60.613500,1793
60.614000,1787
60.614500,1807
60.615000,1801
60.615500,1795
60.616000,1807
60.616500,1807
60.617000,1793
60.617500,1784
60.618000,1786
60.618500,1788
60.619000,1769
60.619500,1765
60.620000,1782
60.620500,1768
60.621000,1767
60.621500,1779
60.622000,1788
60.622500,1777
60.623000,1762
60.623500,1762
60.624000,1763
60.624500,1758
60.625000,1769
60.625500,1797
60.626000,1793
60.626500,1776
60.627000,1788
60.627500,1790
60.628000,1778
60.628500,1782
60.629000,1811
60.629500,1820
60.630000,1808
60.630500,1802
60.631000,1826
60.631500,1819
60.632000,1820
60.632500,1828
60.633000,1837
60.633500,1826
60.634000,1817
60.634500,1825
60.635000,1826
60.635500,1803
60.636000,1794
60.636500,1801
60.637000,1787
60.637500,1783
60.638000,1790
60.638500,1783
60.639000,1776
60.639500,1775
60.640000,1798
60.640500,1810
60.641000,1801
60.641500,1791
60.642000,1802
60.642500,1798
60.643000,1776
60.643500,1772
60.644000,1776
60.644500,1764
60.645000,1767
60.645500,1775
60.646000,1780
60.646500,1758
60.647000,1755
60.647500,1775
60.648000,1786
60.648500,1773
60.649000,1788
60.649500,1810
60.650000,1810
60.650500,1808
60.651000,1821
60.651500,1825
60.652000,1806
60.652500,1798
60.653000,1809
60.653500,1805
60.654000,1780
60.654500,1784
60.655000,1801
60.655500,1794
60.656000,1783
60.656500,1792
60.657000,1805
60.657500,1810
60.658000,1806
60.658500,1818
60.659000,1814
60.659500,1783
60.660000,1781
60.660500,1789
60.661000,1785
60.661500,1780
60.662000,1797
60.662500,1799
60.663000,1783
60.663500,1775
60.664000,1783
60.664500,1782
60.665000,1750
60.665500,1751
60.666000,1756
60.666500,1727
60.667000,1716
60.667500,1728
60.668000,1742
60.668500,1737
60.669000,1742
60.669500,1774
60.670000,1806
60.670500,1816
60.671000,1834
60.671500,1861
60.672000,1848
60.672500,1832
60.673000,1838
60.673500,1838
60.674000,1815
60.674500,1798
60.675000,1807
60.675500,1805
60.676000,1792
60.676500,1789
60.677000,1814
60.677500,1809
60.678000,1805
60.678500,1809
60.679000,1802
60.679500,1787
60.680000,1786
60.680500,1810
60.681000,1817
60.681500,1794
60.682000,1781
60.682500,1790
60.683000,1794
60.683500,1773
60.684000,1780
60.684500,1799
60.685000,1795
60.685500,1802
60.686000,1817
60.686500,1816
60.687000,1803
60.687500,1799
60.688000,1814
60.688500,1817
60.689000,1795
60.689500,1806
60.690000,1796
60.690500,1772
60.691000,1756
60.691500,1755
60.692000,1757
60.692500,1737
60.693000,1722
60.693500,1732
60.694000,1740
60.694500,1716
60.695000,1708
60.695500,1724
60.696000,1726
60.696500,1707
60.697000,1713
60.697500,1745
60.698000,1765
60.698500,1806
60.699000,1848
60.699500,1870
60.700000,1856
60.700500,1831
60.701000,1826
60.701500,1776
60.702000,1733
60.702500,1726
60.703000,1724
60.703500,1714
60.704000,1708
60.704500,1732
60.705000,1765
60.705500,1779
60.706000,1806
60.706500,1868
60.707000,1938
60.707500,1975
60.708000,1980
60.708500,1959
60.709000,1911
60.709500,1878
60.710000,1873
60.710500,1856
60.711000,1824
60.711500,1802
60.712000,1808
60.712500,1801
60.713000,1782
60.713500,1794
60.714000,1783
60.714500,1763
60.715000,1758
60.715500,1774
60.716000,1792
60.716500,1782
60.717000,1785
60.717500,1805
60.718000,1804
60.718500,1783
60.719000,1770
60.719500,1773
60.720000,1749
60.720500,1731
60.721000,1741
60.721500,1740
60.722000,1727
60.722500,1721
60.723000,1745
60.723500,1757
60.724000,1738
60.724500,1723
60.725000,1745
60.725500,1751
60.726000,1755
60.726500,1749
60.727000,1747
60.727500,1741
60.728000,1754
60.728500,1763
60.729000,1759
60.729500,1762
60.730000,1790
60.730500,1817
60.731000,1807
60.731500,1809
60.732000,1842
60.732500,1876
60.733000,1863
60.733500,1837
60.734000,1844
60.734500,1854
60.735000,1840
60.735500,1825
60.736000,1825
60.736500,1805
60.737000,1805
60.737500,1826
60.738000,1854
60.738500,1865
60.739000,1861
60.739500,1861
60.740000,1846
60.740500,1812
60.741000,1793
60.741500,1791
60.742000,1763
60.742500,1757
60.743000,1770
60.743500,1777
60.744000,1772
60.744500,1769
60.745000,1787
60.745500,1813
60.746000,1830
60.746500,1843
60.747000,1858
60.747500,1857
60.748000,1829
60.748500,1822
60.749000,1806
60.749500,1776
60.750000,1752
60.750500,1739
60.751000,1729
60.751500,1710
60.752000,1716
60.752500,1734
60.753000,1740
60.753500,1714
60.754000,1711
60.754500,1700
60.755000,1679
60.755500,1697
60.756000,1749
60.756500,1797
60.757000,1798
60.757500,1804
60.758000,1842
60.758500,1879
60.759000,1885
60.759500,1888
60.760000,1902
60.760500,1876
60.761000,1828
60.761500,1791
60.762000,1783
60.762500,1769
60.763000,1758
60.763500,1755
60.764000,1746
60.764500,1721
60.765000,1714
60.765500,1752
60.766000,1783
60.766500,1813
60.767000,1844
60.767500,1840
60.768000,1810
60.768500,1788
60.769000,1800
60.769500,1820
60.770000,1804
60.770500,1791
60.771000,1779
60.771500,1752
60.772000,1707
60.772500,1713
60.773000,1717
60.773500,1738
60.774000,1764
60.774500,1804
60.775000,1833
60.775500,1816
60.776000,1821
60.776500,1859
60.777000,1870
60.777500,1837
60.778000,1816
60.778500,1840
60.779000,1845
60.779500,1833
60.780000,1833
60.780500,1808
60.781000,1763
60.781500,1743
60.782000,1730
60.782500,1713
60.783000,1683
60.783500,1694
60.784000,1743
60.784500,1768
60.785000,1810
60.785500,1817
60.786000,1806
60.786500,1800
60.787000,1827
60.787500,1858
60.788000,1847
60.788500,1790
60.789000,1755
60.789500,1754
60.790000,1749
60.790500,1731
60.791000,1777
60.791500,1792
60.792000,1791
60.792500,1801
60.793000,1809
60.793500,1776
60.794000,1733
60.794500,1750
60.795000,1802
60.795500,1806
60.796000,1787
60.796500,1795
60.797000,1786
60.797500,1760
60.798000,1747
60.798500,1755
60.799000,1734
60.799500,1742
60.800000,1777
60.800500,1791
60.801000,1788
60.801500,1756
60.802000,1732
60.802500,1768
60.803000,1771
60.803500,1783
60.804000,1837
60.804500,1887
60.805000,1932
60.805500,1973
60.806000,2007
60.806500,2013
60.807000,1988
60.807500,1966
60.808000,1968
60.808500,1926
60.809000,1876
60.809500,1844
60.810000,1834
60.810500,1807
60.811000,1798
60.811500,1809
60.812000,1803
60.812500,1780
60.813000,1761
60.813500,1773
60.814000,1768
60.814500,1740
60.815000,1745
60.815500,1762
60.816000,1751
60.816500,1736
60.817000,1751
60.817500,1789
60.818000,1798
60.818500,1804
60.819000,1822
60.819500,1829
60.820000,1799
60.820500,1780
60.821000,1746
60.821500,1736
60.822000,1737
60.822500,1757
60.823000,1772
60.823500,1740
60.824000,1723
60.824500,1725
60.825000,1700
60.825500,1669
60.826000,1688
60.826500,1723
60.827000,1749
60.827500,1755
60.828000,1762
60.828500,1771
60.829000,1752
60.829500,1758
60.830000,1808
60.830500,1846
60.831000,1835
60.831500,1803
60.832000,1793
60.832500,1767
60.833000,1765
60.833500,1808
60.834000,1852
60.834500,1847
60.835000,1815
60.835500,1814
60.836000,1834
60.836500,1844
60.837000,1855
60.837500,1887
60.838000,1857
60.838500,1828
60.839000,1810
60.839500,1810
60.840000,1795
60.840500,1768
60.841000,1755
60.841500,1745
60.842000,1738
60.842500,1724
60.843000,1739
60.843500,1756
60.844000,1762
60.844500,1807
60.845000,1835
60.845500,1836
60.846000,1833
60.846500,1884
60.847000,1950
60.847500,1964
60.848000,1929
60.848500,1888
60.849000,1853
60.849500,1817
60.850000,1786
60.850500,1764
60.851000,1715
60.851500,1643
60.852000,1591
60.852500,1566
60.853000,1559
60.853500,1583
60.854000,1632
60.854500,1693
60.855000,1765
60.855500,1842
60.856000,1925
60.856500,1960
60.857000,1988
60.857500,1998
60.858000,1972
60.858500,1936
60.859000,1907
60.859500,1893
60.860000,1850
60.860500,1783
60.861000,1725
60.861500,1660
60.862000,1572
60.862500,1521
60.863000,1548
60.863500,1599
60.864000,1650
60.864500,1696
60.865000,1761
60.865500,1799
60.866000,1822
60.866500,1887
60.867000,1943
60.867500,1941
60.868000,1876
60.868500,1808
60.869000,1794
60.869500,1809
60.870000,1856
60.870500,1873
60.871000,1849
60.871500,1821
60.872000,1832
60.872500,1872
60.873000,1881
60.873500,1847
60.874000,1828
60.874500,1847
60.875000,1847
60.875500,1851
60.876000,1863
60.876500,1856
60.877000,1822
60.877500,1812
60.878000,1814
60.878500,1810
60.879000,1770
60.879500,1746
60.880000,1749
60.880500,1731
60.881000,1721
60.881500,1741
60.882000,1751
60.882500,1699
60.883000,1576
60.883500,1467
60.884000,1424
60.884500,1422
60.885000,1452
60.885500,1526
60.886000,1657
60.886500,1833
60.887000,1992
60.887500,2145
60.888000,2197
60.888500,2167
60.889000,2084
60.889500,2016
60.890000,1970
60.890500,1927
60.891000,1904
60.891500,1870
60.892000,1815
60.892500,1769
60.893000,1712
60.893500,1671
60.894000,1664
60.894500,1676
60.895000,1685
60.895500,1696
60.896000,1742
60.896500,1838
60.897000,1882
60.897500,1859
60.898000,1822
60.898500,1790
60.899000,1731
60.899500,1682
60.900000,1668
60.900500,1682
60.901000,1720
60.901500,1756
60.902000,1797
60.902500,1855
60.903000,1921
60.903500,1960
60.904000,1964
60.904500,1922
60.905000,1869
60.905500,1839
60.906000,1850
60.906500,1830
60.907000,1802
60.907500,1781
60.908000,1711
60.908500,1648
60.909000,1579
60.909500,1547
60.910000,1548
60.910500,1559
60.911000,1639
60.911500,1752
60.912000,1833
60.912500,1881
60.913000,1922
60.913500,1968
60.914000,1969
60.914500,1931
60.915000,1898
60.915500,1857
60.916000,1847
60.916500,1869
60.917000,1863
60.917500,1741
60.918000,1645
60.918500,1599
60.919000,1587
60.919500,1577
60.920000,1599
60.920500,1659
60.921000,1765
60.921500,1870
60.922000,1944
60.922500,1954
60.923000,1868
60.923500,1799
60.924000,1780
60.924500,1775
60.925000,1775
60.925500,1795
60.926000,1818
60.926500,1848
60.927000,1848
60.927500,1848
60.928000,1887
60.928500,1874
60.929000,1823
60.929500,1814
60.930000,1804
60.930500,1788
60.931000,1704
60.931500,1607
60.932000,1579
60.932500,1598
60.933000,1680
60.933500,1787
60.934000,1894
60.934500,1977
60.935000,2027
60.935500,2052
60.936000,1991
60.936500,1918
60.937000,1885
60.937500,1875
60.938000,1856
60.938500,1852
60.939000,1878
60.939500,1898
60.940000,1873
60.940500,1846
60.941000,1817
60.941500,1740
60.942000,1616
60.942500,1540
60.943000,1526
60.943500,1519
60.944000,1558
60.944500,1666
60.945000,1753
60.945500,1802
60.946000,1887
60.946500,1951
60.947000,1952
60.947500,1906
60.948000,1872
60.948500,1844
60.949000,1824
60.949500,1823
60.950000,1841
60.950500,1847
60.951000,1826
60.951500,1838
60.952000,1881
60.952500,1873
60.953000,1826
60.953500,1800
60.954000,1793
60.954500,1777
60.955000,1742
60.955500,1704
60.956000,1690
60.956500,1689
60.957000,1686
60.957500,1701
60.958000,1699
60.958500,1706
60.959000,1725
60.959500,1755
60.960000,1767
60.960500,1798
60.961000,1858
60.961500,1892
60.962000,1868
60.962500,1830
60.963000,1800
60.963500,1705
60.964000,1656
60.964500,1720
60.965000,1748
60.965500,1753
60.966000,1773
60.966500,1819
60.967000,1864
60.967500,1898
60.968000,1901
60.968500,1881
60.969000,1836
60.969500,1763
60.970000,1770
60.970500,1790
60.971000,1780
60.971500,1768
60.972000,1781
60.972500,1768
60.973000,1754
60.973500,1717
60.974000,1718
60.974500,1692
60.975000,1632
60.975500,1661
60.976000,1672
60.976500,1679
60.977000,1711
60.977500,1782
60.978000,1847
60.978500,1889
60.979000,1934
60.979500,1952
60.980000,1892
60.980500,1799
60.981000,1803
60.981500,1839
60.982000,1884
60.982500,1920
60.983000,1948
60.983500,1947
60.984000,1895
60.984500,1825
60.985000,1781
60.985500,1740
60.986000,1715
60.986500,1724
60.987000,1730
60.987500,1721
60.988000,1741
60.988500,1810
60.989000,1884
60.989500,1893
60.990000,1851
60.990500,1807
60.991000,1815
60.991500,1818
60.992000,1782
60.992500,1744
60.993000,1722
60.993500,1712
60.994000,1712
60.994500,1699
60.995000,1698
60.995500,1730
60.996000,1813
60.996500,1826
60.997000,1750
60.997500,1736
60.998000,1780
60.998500,1797
60.999000,1815
60.999500,1848
61.000000,1905
61.000500,1932
61.001000,1927
61.001500,1916
61.002000,1866
61.002500,1791
61.003000,1749
61.003500,1729
61.004000,1715
61.004500,1733
61.005000,1788
61.005500,1811
61.006000,1773
61.006500,1748
61.007000,1737
61.007500,1719
61.008000,1712
61.008500,1725
61.009000,1764
61.009500,1781
61.010000,1805
61.010500,1820
61.011000,1788
61.011500,1720
61.012000,1632
61.012500,1644
61.013000,1666
61.013500,1687
61.014000,1747
61.014500,1848
61.015000,1931
61.015500,1968
61.016000,1925
61.016500,1806
61.017000,1698
61.017500,1658
61.018000,1654
61.018500,1709
61.019000,1801
61.019500,1915
61.020000,1985
61.020500,1960
61.021000,1896
61.021500,1860
61.022000,1853
61.022500,1846
61.023000,1828
61.023500,1824
61.024000,1811
61.024500,1760
61.025000,1707
61.025500,1700
61.026000,1710
61.026500,1764
61.027000,1820
61.027500,1812
61.028000,1765
61.028500,1732
61.029000,1725
61.029500,1741
61.030000,1727
61.030500,1707
61.031000,1734
61.031500,1751
61.032000,1800
61.032500,1875
61.033000,1910
61.033500,1890
61.034000,1850
61.034500,1862
61.035000,1874
61.035500,1813
61.036000,1685
61.036500,1588
61.037000,1549
61.037500,1563
61.038000,1620
61.038500,1702
61.039000,1782
61.039500,1892
61.040000,1908
61.040500,1823
61.041000,1736
61.041500,1709
61.042000,1751
61.042500,1764
61.043000,1817
61.043500,1894
61.044000,1913
61.044500,1874
61.045000,1855
61.045500,1880
61.046000,1918
61.046500,1954
61.047000,1967
61.047500,1981
61.048000,1940
61.048500,1895
61.049000,1870
61.049500,1844
61.050000,1808
61.050500,1754
61.051000,1709
61.051500,1638
61.052000,1522
61.052500,1498
61.053000,1515
61.053500,1468
61.054000,1491
61.054500,1593
61.055000,1765
61.055500,1886
61.056000,1887
61.056500,1878
61.057000,1888
61.057500,1921
61.058000,1973
61.058500,2031
61.059000,1996
61.059500,1934
61.060000,1905
61.060500,1867
61.061000,1860
61.061500,1881
61.062000,1894
61.062500,1849
61.063000,1800
61.063500,1815
61.064000,1880
61.064500,1893
61.065000,1901
61.065500,1890
61.066000,1856
61.066500,1831
61.067000,1822
61.067500,1815
61.068000,1781
61.068500,1716
61.069000,1650
61.069500,1603
61.070000,1589
61.070500,1614
61.071000,1688
61.071500,1786
61.072000,1902
61.072500,2026
61.073000,2057
61.073500,1978
61.074000,1882
61.074500,1842
61.075000,1856
61.075500,1821
61.076000,1778
61.076500,1750
61.077000,1710
61.077500,1643
61.078000,1562
61.078500,1512
61.079000,1518
61.079500,1545
61.080000,1588
61.080500,1660
61.081000,1731
61.081500,1839
61.082000,1926
61.082500,1903
61.083000,1869
61.083500,1879
61.084000,1878
61.084500,1835
61.085000,1791
61.085500,1763
61.086000,1769
61.086500,1772
61.087000,1754
61.087500,1706
61.088000,1668
61.088500,1614
61.089000,1563
61.089500,1559
61.090000,1572
61.090500,1649
61.091000,1758
61.091500,1854
61.092000,1899
61.092500,1948
61.093000,2004
61.093500,2028
61.094000,2003
61.094500,1940
61.095000,1860
61.095500,1752
61.096000,1660
61.096500,1656
61.097000,1730
61.097500,1789
61.098000,1840
61.098500,1899
61.099000,1946
61.099500,1954
61.100000,1954
61.100500,1964
61.101000,1952
61.101500,1916
61.102000,1884
61.102500,1890
61.103000,1864
61.103500,1824
61.104000,1796
61.104500,1763
61.105000,1731
61.105500,1747
61.106000,1798
61.106500,1788
61.107000,1779
61.107500,1798
61.108000,1737
61.108500,1607
61.109000,1516
61.109500,1519
61.110000,1589
61.110500,1667
61.111000,1796
61.111500,1956
61.112000,2022
61.112500,2010
61.113000,1964
61.113500,1890
61.114000,1811
61.114500,1753
61.115000,1746
61.115500,1784
61.116000,1844
61.116500,1898
61.117000,1883
61.117500,1840
61.118000,1789
61.118500,1754
61.119000,1720
61.119500,1687
61.120000,1679
61.120500,1684
61.121000,1693
61.121500,1684
61.122000,1696
61.122500,1758
61.123000,1827
61.123500,1875
61.124000,1900
61.124500,1922
61.125000,1897
61.125500,1854
61.126000,1828
61.126500,1802
61.127000,1748
61.127500,1695
61.128000,1693
61.128500,1675
61.129000,1594
61.129500,1519
61.130000,1517
61.130500,1558
61.131000,1647
61.131500,1772
61.132000,1873
61.132500,1937
61.133000,1969
61.133500,1968
61.134000,1932
61.134500,1843
61.135000,1793
61.135500,1824
61.136000,1809
61.136500,1683
61.137000,1567
61.137500,1517
61.138000,1441
61.138500,1481
61.139000,1617
61.139500,1774
61.140000,1906
61.140500,1977
61.141000,2064
61.141500,2107
61.142000,2093
61.142500,2041
61.143000,1959
61.143500,1851
61.144000,1783
61.144500,1782
61.145000,1790
61.145500,1806
61.146000,1853
61.146500,1942
61.147000,1971
61.147500,1963
61.148000,1948
61.148500,1918
61.149000,1873
61.149500,1839
61.150000,1832
61.150500,1801
61.151000,1764
61.151500,1756
61.152000,1765
61.152500,1730
61.153000,1645
61.153500,1590
61.154000,1584
61.154500,1604
61.155000,1652
61.155500,1725
61.156000,1805
61.156500,1866
61.157000,1882
61.157500,1828
61.158000,1722
61.158500,1679
61.159000,1697
61.159500,1732
61.160000,1732
61.160500,1765
61.161000,1879
61.161500,1828
61.162000,1678
61.162500,1579
61.163000,1617
61.163500,1693
61.164000,1793
61.164500,1922
61.165000,2011
61.165500,2002
61.166000,1961
61.166500,1898
61.167000,1843
61.167500,1799
61.168000,1766
61.168500,1758
61.169000,1753
61.169500,1780
61.170000,1820
61.170500,1826
61.171000,1842
61.171500,1863
61.172000,1887
61.172500,1904
61.173000,1863
61.173500,1788
61.174000,1754
61.174500,1710
61.175000,1663
61.175500,1682
61.176000,1720
61.176500,1745
61.177000,1753
61.177500,1771
61.178000,1761
61.178500,1710
61.179000,1679
61.179500,1701
61.180000,1705
61.180500,1731
61.181000,1808
61.181500,1882
61.182000,1902
61.182500,1891
61.183000,1873
61.183500,1864
61.184000,1845
61.184500,1847
61.185000,1863
61.185500,1844
61.186000,1812
61.186500,1813
61.187000,1786
61.187500,1739
61.188000,1643
61.188500,1502
61.189000,1439
61.189500,1450
61.190000,1542
61.190500,1667
61.191000,1810
61.191500,1987
61.192000,2079
61.192500,2026
61.193000,1941
61.193500,1882
61.194000,1844
61.194500,1836
61.195000,1836
61.195500,1878
61.196000,1907
61.196500,1856
61.197000,1779
61.197500,1736
61.198000,1721
61.198500,1735
61.199000,1813
61.199500,1901
61.200000,1946
61.200500,1940
61.201000,1903
61.201500,1817
61.202000,1769
61.202500,1754
61.203000,1734
61.203500,1700
61.204000,1700
61.204500,1715
61.205000,1746
61.205500,1748
61.206000,1777
61.206500,1861
61.207000,1868
61.207500,1825
61.208000,1775
61.208500,1750
61.209000,1746
61.209500,1741
61.210000,1807
61.210500,1882
61.211000,1888
61.211500,1845
61.212000,1826
61.212500,1813
61.213000,1786
61.213500,1812
61.214000,1892
61.214500,1899
61.215000,1823
61.215500,1714
61.216000,1613
61.216500,1515
61.217000,1441
61.217500,1422
61.218000,1509
61.218500,1656
61.219000,1781
61.219500,1895
61.220000,1965
61.220500,1962
61.221000,1942
61.221500,1945
61.222000,1967
61.222500,1960
61.223000,1916
61.223500,1879
61.224000,1849
61.224500,1852
61.225000,1871
61.225500,1861
61.226000,1826
61.226500,1798
61.227000,1790
61.227500,1803
61.228000,1816
61.228500,1824
61.229000,1838
61.229500,1807
61.230000,1766
61.230500,1747
61.231000,1751
61.231500,1742
61.232000,1740
61.232500,1765
61.233000,1796
61.233500,1802
61.234000,1780
61.234500,1747
61.235000,1692
61.235500,1672
61.236000,1682
61.236500,1700
61.237000,1692
61.237500,1731
61.238000,1731
61.238500,1698
61.239000,1655
61.239500,1659
61.240000,1717
61.240500,1762
61.241000,1793
61.241500,1817
61.242000,1866
61.242500,1874
61.243000,1860
61.243500,1814
61.244000,1738
61.244500,1668
61.245000,1680
61.245500,1757
61.246000,1816
61.246500,1836
61.247000,1893
61.247500,1975
61.248000,2000
61.248500,1973
61.249000,1934
61.249500,1904
61.250000,1878
61.250500,1816
61.251000,1782
61.251500,1746
61.252000,1710
61.252500,1719
61.253000,1749
61.253500,1780
61.254000,1837
61.254500,1889
61.255000,1902
61.255500,1843
61.256000,1805
61.256500,1812
61.257000,1813
61.257500,1805
61.258000,1813
61.258500,1830
61.259000,1823
61.259500,1794
61.260000,1719
61.260500,1650
61.261000,1577
61.261500,1545
61.262000,1588
61.262500,1661
61.263000,1748
61.263500,1811
61.264000,1850
61.264500,1863
61.265000,1847
61.265500,1838
61.266000,1802
61.266500,1703
61.267000,1651
61.267500,1690
61.268000,1754
61.268500,1810
61.269000,1907
61.269500,1963
61.270000,1941
61.270500,1925
61.271000,1940
61.271500,1932
61.272000,1887
61.272500,1860
61.273000,1857
61.273500,1826
61.274000,1789
61.274500,1780
61.275000,1761
61.275500,1745
61.276000,1746
61.276500,1773
61.277000,1790
61.277500,1764
61.278000,1741
61.278500,1749
61.279000,1697
61.279500,1675
61.280000,1736
61.280500,1824
61.281000,1892
61.281500,1889
61.282000,1876
61.282500,1863
61.283000,1826
61.283500,1798
61.284000,1790
61.284500,1761
61.285000,1736
61.285500,1753
61.286000,1778
61.286500,1799
61.287000,1813
61.287500,1820
61.288000,1832
61.288500,1820
61.289000,1796
61.289500,1754
61.290000,1707
61.290500,1622
61.291000,1548
61.291500,1531
61.292000,1507
61.292500,1509
61.293000,1565
61.293500,1644
61.294000,1707
61.294500,1765
61.295000,1833
61.295500,1862
61.296000,1862
61.296500,1859
61.297000,1902
61.297500,1924
61.298000,1891
61.298500,1871
61.299000,1865
61.299500,1860
61.300000,1846
61.300500,1867
61.301000,1862
61.301500,1860
61.302000,1899
61.302500,1957
61.303000,2000
61.303500,2006
61.304000,1975
61.304500,1901
61.305000,1803
61.305500,1749
61.306000,1735
61.306500,1698
61.307000,1648
61.307500,1626
61.308000,1607
61.308500,1566
61.309000,1566
61.309500,1661
61.310000,1780
61.310500,1863
61.311000,1948
61.311500,2041
61.312000,2060
61.312500,2023
61.313000,1967
61.313500,1892
61.314000,1773
61.314500,1671
61.315000,1634
61.315500,1618
61.316000,1610
61.316500,1627
61.317000,1697
61.317500,1736
61.318000,1749
61.318500,1781
61.319000,1837
61.319500,1831
61.320000,1785
61.320500,1774
61.321000,1803
61.321500,1819
61.322000,1854
61.322500,1887
61.323000,1866
61.323500,1845
61.324000,1860
61.324500,1876
61.325000,1861
61.325500,1817
61.326000,1797
61.326500,1759
61.327000,1709
61.327500,1711
61.328000,1735
61.328500,1765
61.329000,1806
61.329500,1862
61.330000,1886
61.330500,1869
61.331000,1843
61.331500,1812
61.332000,1753
61.332500,1685
61.333000,1673
61.333500,1733
61.334000,1803
61.334500,1840
61.335000,1814
61.335500,1664
61.336000,1495
61.336500,1391
61.337000,1392
61.337500,1482
61.338000,1614
61.338500,1829
61.339000,2049
61.339500,2112
61.340000,2077
61.340500,2036
61.341000,1988
61.341500,1932
61.342000,1900
61.342500,1902
61.343000,1902
61.343500,1883
61.344000,1834
61.344500,1806
61.345000,1782
61.345500,1766
61.346000,1773
61.346500,1796
61.347000,1818
61.347500,1839
61.348000,1849
61.348500,1839
61.349000,1802
61.349500,1759
61.350000,1758
61.350500,1754
61.351000,1781
61.351500,1801
61.352000,1814
61.352500,1811
61.353000,1794
61.353500,1745
61.354000,1670
61.354500,1583
61.355000,1548
61.355500,1570
61.356000,1609
61.356500,1695
61.357000,1813
61.357500,1917
61.358000,1936
61.358500,1949
61.359000,1956
61.359500,1916
61.360000,1876
61.360500,1858
61.361000,1871
61.361500,1840
61.362000,1806
61.362500,1792
61.363000,1786
61.363500,1759
61.364000,1743
61.364500,1751
61.365000,1762
61.365500,1774
61.366000,1796
61.366500,1804
61.367000,1806
61.367500,1787
61.368000,1780
61.368500,1772
61.369000,1745
61.369500,1735
61.370000,1724
61.370500,1702
61.371000,1650
61.371500,1616
61.372000,1582
61.372500,1539
61.373000,1563
61.373500,1674
61.374000,1838
61.374500,1964
61.375000,1990
61.375500,1986
61.376000,1985
61.376500,1919
61.377000,1902
61.377500,1933
61.378000,1911
61.378500,1868
61.379000,1833
61.379500,1814
61.380000,1797
61.380500,1793
61.381000,1805
61.381500,1804
61.382000,1796
61.382500,1782
61.383000,1784
61.383500,1747
61.384000,1732
61.384500,1735
61.385000,1730
61.385500,1725
61.386000,1737
61.386500,1784
61.387000,1819
61.387500,1810
61.388000,1804
61.388500,1830
61.389000,1797
61.389500,1773
61.390000,1766
61.390500,1694
61.391000,1599
61.391500,1554
61.392000,1586
61.392500,1620
61.393000,1680
61.393500,1810
61.394000,1909
61.394500,1880
61.395000,1785
61.395500,1682
61.396000,1655
61.396500,1693
61.397000,1779
61.397500,1904
61.398000,1983
61.398500,2008
61.399000,2012
61.399500,1982
61.400000,1955
61.400500,1927
61.401000,1929
61.401500,1904
61.402000,1848
61.402500,1817
61.403000,1817
61.403500,1829
61.404000,1832
61.404500,1816
61.405000,1781
61.405500,1761
61.406000,1749
61.406500,1762
61.407000,1784
61.407500,1758
61.408000,1734
61.408500,1738
61.409000,1735
61.409500,1725
61.410000,1729
61.410500,1764
61.411000,1784
61.411500,1772
61.412000,1788
61.412500,1783
61.413000,1811
61.413500,1846
61.414000,1869
61.414500,1874
61.415000,1852
61.415500,1822
61.416000,1826
61.416500,1829
61.417000,1812
61.417500,1837
61.418000,1837
61.418500,1818
61.419000,1770
61.419500,1733
61.420000,1662
61.420500,1523
61.421000,1416
61.421500,1393
61.422000,1440
61.422500,1505
61.423000,1613
61.423500,1725
61.424000,1781
61.424500,1837
61.425000,1906
61.425500,1952
61.426000,1957
61.426500,1960
61.427000,1992
61.427500,2015
61.428000,1985
61.428500,1996
61.429000,1986
61.429500,1956
61.430000,1907
61.430500,1861
61.431000,1834
61.431500,1801
61.432000,1774
61.432500,1767
61.433000,1765
61.433500,1765
61.434000,1816
61.434500,1833
61.435000,1826
61.435500,1825
61.436000,1847
61.436500,1826
61.437000,1785
61.437500,1768
61.438000,1757
61.438500,1737
61.439000,1694
61.439500,1641
61.440000,1573
61.440500,1515
61.441000,1510
61.441500,1562
61.442000,1647
61.442500,1759
61.443000,1896
61.443500,2017
61.444000,2058
61.444500,2016
61.445000,1980
61.445500,1907
61.446000,1833
61.446500,1786
61.447000,1777
61.447500,1779
61.448000,1789
61.448500,1816
61.449000,1803
61.449500,1746
61.450000,1697
61.450500,1694
61.451000,1680
61.451500,1702
61.452000,1756
61.452500,1829
61.453000,1867
61.453500,1867
61.454000,1873
61.454500,1872
61.455000,1847
61.455500,1811
61.456000,1824
61.456500,1808
61.457000,1767
61.457500,1751
61.458000,1747
61.458500,1743
61.459000,1754
61.459500,1748
61.460000,1756
61.460500,1804
61.461000,1858
61.461500,1915
61.462000,1920
61.462500,1909
61.463000,1872
61.463500,1834
61.464000,1788
61.464500,1735
61.465000,1714
61.465500,1727
61.466000,1742
61.466500,1744
61.467000,1771
61.467500,1757
61.468000,1730
61.468500,1742
61.469000,1785
61.469500,1774
61.470000,1742
61.470500,1745
61.471000,1768
61.471500,1762
61.472000,1781
61.472500,1869
61.473000,1877
61.473500,1836
61.474000,1800
61.474500,1800
61.475000,1796
61.475500,1777
61.476000,1780
61.476500,1793
61.477000,1775
61.477500,1756
61.478000,1729
61.478500,1706
61.479000,1692
61.479500,1707
61.480000,1769
61.480500,1861
61.481000,1927
61.481500,1959
61.482000,1969
61.482500,1920
61.483000,1807
61.483500,1727
61.484000,1675
61.484500,1627
61.485000,1552
61.485500,1521
61.486000,1581
61.486500,1629
61.487000,1681
61.487500,1788
61.488000,1925
61.488500,2037
61.489000,2108
61.489500,2081
61.490000,1991
61.490500,1928
61.491000,1913
61.491500,1890
61.492000,1829
61.492500,1775
61.493000,1738
61.493500,1686
61.494000,1692
61.494500,1729
61.495000,1778
61.495500,1841
61.496000,1899
61.496500,1938
61.497000,1943
61.497500,1883
61.498000,1812
61.498500,1790
61.499000,1725
61.499500,1640
61.500000,1587
61.500500,1585
61.501000,1612
61.501500,1670
61.502000,1750
61.502500,1844
61.503000,1914
61.503500,1936
61.504000,1934
61.504500,1892
61.505000,1824
61.505500,1757
61.506000,1710
61.506500,1690
61.507000,1723
61.507500,1793
61.508000,1835
61.508500,1838
61.509000,1825
61.509500,1810
61.510000,1788
61.510500,1763
61.511000,1775
61.511500,1772
61.512000,1796
61.512500,1877
61.513000,1942
61.513500,1889
61.514000,1804
61.514500,1788
61.515000,1826
61.515500,1804
61.516000,1770
61.516500,1717
61.517000,1632
61.517500,1565
61.518000,1532
61.518500,1567
61.519000,1664
61.519500,1766
61.520000,1870
61.520500,1911
61.521000,1940
61.521500,1966
61.522000,1988
61.522500,1948
61.523000,1875
61.523500,1831
61.524000,1824
61.524500,1814
61.525000,1796
61.525500,1783
61.526000,1751
61.526500,1688
61.527000,1644
61.527500,1584
61.528000,1509
61.528500,1439
61.529000,1413
61.529500,1465
61.530000,1600
61.530500,1760
61.531000,1927
61.531500,1995
61.532000,1997
61.532500,1997
61.533000,2020
61.533500,2026
61.534000,1973
61.534500,1950
61.535000,1985
61.535500,1992
61.536000,1918
61.536500,1884
61.537000,1851
61.537500,1835
61.538000,1793
61.538500,1752
61.539000,1724
61.539500,1697
61.540000,1705
61.540500,1736
61.541000,1759
61.541500,1781
61.542000,1856
61.542500,1903
61.543000,1884
61.543500,1852
61.544000,1830
61.544500,1808
61.545000,1780
61.545500,1768
61.546000,1774
61.546500,1788
61.547000,1796
61.547500,1803
61.548000,1812
61.548500,1814
61.549000,1817
61.549500,1825
61.550000,1810
61.550500,1752
61.551000,1711
61.551500,1684
61.552000,1676
61.552500,1676
61.553000,1676
61.553500,1674
61.554000,1666
61.554500,1643
61.555000,1642
61.555500,1689
61.556000,1749
61.556500,1800
61.557000,1824
61.557500,1878
61.558000,1918
61.558500,1914
61.559000,1883
61.559500,1834
61.560000,1809
61.560500,1794
61.561000,1761
61.561500,1729
61.562000,1733
61.562500,1817
61.563000,1904
61.563500,1937
61.564000,1907
61.564500,1857
61.565000,1811
61.565500,1776
61.566000,1744
61.566500,1727
61.567000,1746
61.567500,1789
61.568000,1835
61.568500,1860
61.569000,1850
61.569500,1830
61.570000,1832
61.570500,1829
61.571000,1832
61.571500,1829
61.572000,1791
61.572500,1747
61.573000,1719
61.573500,1725
61.574000,1756
61.574500,1787
61.575000,1812
61.575500,1814
61.576000,1753
61.576500,1707
61.577000,1709
61.577500,1710
61.578000,1688
61.578500,1704
61.579000,1744
61.579500,1756
61.580000,1743
61.580500,1732
61.581000,1752
61.581500,1764
61.582000,1782
61.582500,1835
61.583000,1894
61.583500,1833
61.584000,1758
61.584500,1749
61.585000,1756
61.585500,1733
61.586000,1742
61.586500,1824
61.587000,1863
61.587500,1869
61.588000,1867
61.588500,1860
61.589000,1837
61.589500,1843
61.590000,1869
61.590500,1884
61.591000,1862
61.591500,1801
61.592000,1746
61.592500,1715
61.593000,1733
61.593500,1793
61.594000,1832
61.594500,1843
61.595000,1839
61.595500,1815
61.596000,1792
61.596500,1771
61.597000,1776
61.597500,1805
61.598000,1787
61.598500,1756
61.599000,1719
61.599500,1712
61.600000,1705
61.600500,1708
61.601000,1739
61.601500,1743
61.602000,1705
61.602500,1661
61.603000,1680
61.603500,1709
61.604000,1736
61.604500,1801
61.605000,1895
61.605500,1961
61.606000,1949
61.606500,1927
61.607000,1936
61.607500,1929
61.608000,1898
61.608500,1838
61.609000,1743
61.609500,1672
61.610000,1639
61.610500,1634
61.611000,1639
61.611500,1681
61.612000,1797
61.612500,1911
61.613000,1954
61.613500,1959
61.614000,1982
61.614500,1937
61.615000,1882
61.615500,1829
61.616000,1755
61.616500,1669
61.617000,1613
61.617500,1607
61.618000,1646
61.618500,1738
61.619000,1825
61.619500,1888
61.620000,1902
61.620500,1922
61.621000,1913
61.621500,1878
61.622000,1816
61.622500,1778
61.623000,1767
61.623500,1763
61.624000,1747
61.624500,1753
61.625000,1791
61.625500,1802
61.626000,1795
61.626500,1748
61.627000,1727
61.627500,1716
61.628000,1723
61.628500,1729
61.629000,1775
61.629500,1831
61.630000,1881
61.630500,1906
61.631000,1871
61.631500,1818
61.632000,1783
61.632500,1773
61.633000,1749
61.633500,1715
61.634000,1711
61.634500,1720
61.635000,1724
61.635500,1730
61.636000,1795
61.636500,1861
61.637000,1898
61.637500,1911
61.638000,1892
61.638500,1838
61.639000,1807
61.639500,1760
61.640000,1693
61.640500,1636
61.641000,1617
61.641500,1644
61.642000,1686
61.642500,1800
61.643000,1915
61.643500,1976
61.644000,1962
61.644500,1922
61.645000,1889
61.645500,1845
61.646000,1781
61.646500,1709
61.647000,1662
61.647500,1606
61.648000,1521
61.648500,1447
61.649000,1487
61.649500,1568
61.650000,1677
61.650500,1808
61.651000,1950
61.651500,2034
61.652000,2078
61.652500,2074
61.653000,2008
61.653500,1959
61.654000,1927
61.654500,1877
61.655000,1834
61.655500,1802
61.656000,1799
61.656500,1819
61.657000,1832
61.657500,1849
61.658000,1855
61.658500,1821
61.659000,1746
61.659500,1693
61.660000,1696
61.660500,1699
61.661000,1691
61.661500,1704
61.662000,1788
61.662500,1868
61.663000,1855
61.663500,1829
61.664000,1831
61.664500,1828
61.665000,1849
61.665500,1839
61.666000,1814
61.666500,1786
61.667000,1766
61.667500,1734
61.668000,1696
61.668500,1673
61.669000,1675
61.669500,1677
61.670000,1662
61.670500,1724
61.671000,1789
61.671500,1809
61.672000,1824
61.672500,1862
61.673000,1886
61.673500,1879
61.674000,1864
61.674500,1858
61.675000,1856
61.675500,1823
61.676000,1797
61.676500,1798
61.677000,1791
61.677500,1786
61.678000,1797
61.678500,1804
61.679000,1758
61.679500,1727
61.680000,1727
61.680500,1678
61.681000,1620
61.681500,1612
61.682000,1665
61.682500,1734
61.683000,1795
61.683500,1841
61.684000,1867
61.684500,1838
61.685000,1794
61.685500,1805
61.686000,1831
61.686500,1885
61.687000,1926
61.687500,1938
61.688000,1910
61.688500,1861
61.689000,1800
61.689500,1748
61.690000,1686
61.690500,1660
61.691000,1702
61.691500,1739
61.692000,1727
61.692500,1730
61.693000,1730
61.693500,1733
61.694000,1719
61.694500,1716
61.695000,1748
61.695500,1756
61.696000,1767
61.696500,1778
61.697000,1802
61.697500,1838
61.698000,1847
61.698500,1825
61.699000,1754
61.699500,1758
61.700000,1784
61.700500,1785
61.701000,1760
61.701500,1777
61.702000,1901
61.702500,1995
61.703000,2005
61.703500,1975
61.704000,1923
61.704500,1833
61.705000,1769
61.705500,1752
61.706000,1718
61.706500,1686
61.707000,1705
61.707500,1736
61.708000,1767
61.708500,1820
61.709000,1877
61.709500,1903
61.710000,1925
61.710500,1937
61.711000,1943
61.711500,1915
61.712000,1858
61.712500,1812
61.713000,1799
61.713500,1754
61.714000,1677
61.714500,1621
61.715000,1593
61.715500,1584
61.716000,1628
61.716500,1711
61.717000,1814
61.717500,1936
61.718000,1983
61.718500,1952
61.719000,1868
61.719500,1831
61.720000,1825
61.720500,1814
61.721000,1794
61.721500,1777
61.722000,1787
61.722500,1806
61.723000,1775
61.723500,1739
61.724000,1718
61.724500,1695
61.725000,1692
61.725500,1655
61.726000,1655
61.726500,1658
61.727000,1668
61.727500,1692
61.728000,1740
61.728500,1836
61.729000,1940
61.729500,1973
61.730000,1930
61.730500,1929
61.731000,1940
61.731500,1912
61.732000,1864
61.732500,1801
61.733000,1764
61.733500,1753
61.734000,1758
61.734500,1793
61.735000,1830
61.735500,1802
61.736000,1825
61.736500,1841
61.737000,1834
61.737500,1802
61.738000,1782
61.738500,1793
61.739000,1800
61.739500,1773
61.740000,1731
61.740500,1710
61.741000,1676
61.741500,1660
61.742000,1645
61.742500,1632
61.743000,1620
61.743500,1621
61.744000,1645
61.744500,1709
61.745000,1764
61.745500,1802
61.746000,1841
61.746500,1861
61.747000,1843
61.747500,1861
61.748000,1849
61.748500,1825
61.749000,1774
61.749500,1736
61.750000,1695
61.750500,1652
61.751000,1699
61.751500,1798
61.752000,1871
61.752500,1933
61.753000,2012
61.753500,2093
61.754000,2084
61.754500,2002
61.755000,1914
61.755500,1856
61.756000,1813
61.756500,1783
61.757000,1778
61.757500,1775
61.758000,1749
61.758500,1749
61.759000,1765
61.759500,1788
61.760000,1800
61.760500,1793
61.761000,1777
61.761500,1758
61.762000,1732
61.762500,1687
61.763000,1648
61.763500,1610
61.764000,1581
61.764500,1492
61.765000,1488
61.765500,1596
61.766000,1735
61.766500,1822
61.767000,1860
61.767500,1963
61.768000,2065
61.768500,2022
61.769000,1897
61.769500,1834
61.770000,1824
61.770500,1813
61.771000,1800
61.771500,1817
61.772000,1817
61.772500,1802
61.773000,1828
61.773500,1876
61.774000,1873
61.774500,1875
61.775000,1875
61.775500,1857
61.776000,1834
61.776500,1825
61.777000,1833
61.777500,1839
61.778000,1810
61.778500,1794
61.779000,1806
61.779500,1804
61.780000,1793
61.780500,1799
61.781000,1798
61.781500,1777
61.782000,1758
61.782500,1765
61.783000,1761
61.783500,1731
61.784000,1672
61.784500,1632
61.785000,1614
61.785500,1619
61.786000,1674
61.786500,1723
61.787000,1749
61.787500,1778
61.788000,1797
61.788500,1818
61.789000,1856
61.789500,1915
61.790000,1969
61.790500,1952
61.791000,1917
61.791500,1880
61.792000,1862
61.792500,1825
61.793000,1798
61.793500,1787
61.794000,1754
61.794500,1696
61.795000,1692
61.795500,1735
61.796000,1770
61.796500,1783
61.797000,1809
61.797500,1820
61.798000,1800
61.798500,1798
61.799000,1791
61.799500,1775
61.800000,1758
61.800500,1774
61.801000,1822
61.801500,1836
61.802000,1817
61.802500,1762
61.803000,1751
61.803500,1753
61.804000,1750
61.804500,1760
61.805000,1762
61.805500,1734
61.806000,1742
61.806500,1745
61.807000,1714
61.807500,1646
61.808000,1624
61.808500,1653
61.809000,1685
61.809500,1736
61.810000,1829
61.810500,1910
61.811000,1979
61.811500,2027
61.812000,1981
61.812500,1922
61.813000,1868
61.813500,1837
61.814000,1787
61.814500,1695
61.815000,1643
61.815500,1628
61.816000,1637
61.816500,1678
61.817000,1812
61.817500,1943
61.818000,1962
61.818500,1902
61.819000,1878
61.819500,1844
61.820000,1801
61.820500,1783
61.821000,1813
61.821500,1871
61.822000,1874
61.822500,1798
61.823000,1757
61.823500,1768
61.824000,1788
61.824500,1817
61.825000,1849
61.825500,1864
61.826000,1870
61.826500,1872
61.827000,1848
61.827500,1796
61.828000,1764
61.828500,1751
61.829000,1735
61.829500,1740
61.830000,1779
61.830500,1804
61.831000,1813
61.831500,1818
61.832000,1797
61.832500,1732
61.833000,1603
61.833500,1512
61.834000,1494
61.834500,1531
61.835000,1628
61.835500,1767
61.836000,1899
61.836500,1981
61.837000,1990
61.837500,1959
61.838000,1891
61.838500,1830
61.839000,1802
61.839500,1816
61.840000,1851
61.840500,1845
61.841000,1803
61.841500,1779
61.842000,1810
61.842500,1859
61.843000,1850
61.843500,1807
61.844000,1765
61.844500,1750
61.845000,1729
61.845500,1731
61.846000,1779
61.846500,1847
61.847000,1862
61.847500,1834
61.848000,1826
61.848500,1825
61.849000,1814
61.849500,1768
61.850000,1762
61.850500,1711
61.851000,1633
61.851500,1601
61.852000,1646
61.852500,1755
61.853000,1831
61.853500,1892
61.854000,1939
61.854500,1928
61.855000,1936
61.855500,1927
61.856000,1891
61.856500,1831
61.857000,1789
61.857500,1815
61.858000,1835
61.858500,1816
61.859000,1822
61.859500,1849
61.860000,1833
61.860500,1803
61.861000,1791
61.861500,1750
61.862000,1667
61.862500,1605
61.863000,1587
61.863500,1609
61.864000,1660
61.864500,1746
61.865000,1826
61.865500,1837
61.866000,1817
61.866500,1809
61.867000,1788
61.867500,1745
61.868000,1739
61.868500,1807
61.869000,1876
61.869500,1879
61.870000,1860
61.870500,1857
61.871000,1856
61.871500,1848
61.872000,1832
61.872500,1808
61.873000,1785
61.873500,1776
61.874000,1799
61.874500,1789
61.875000,1735
61.875500,1731
61.876000,1720
61.876500,1706
61.877000,1710
61.877500,1759
61.878000,1809
61.878500,1818
61.879000,1805
61.879500,1822
61.880000,1821
61.880500,1759
61.881000,1658
61.881500,1420
61.882000,1254
61.882500,1254
61.883000,1362
61.883500,1556
61.884000,1839
61.884500,2192
61.885000,2401
61.885500,2356
61.886000,2214
61.886500,2097
61.887000,1966
61.887500,1846
61.888000,1784
61.888500,1765
61.889000,1764
61.889500,1764
61.890000,1808
61.890500,1873
61.891000,1890
61.891500,1854
61.892000,1846
61.892500,1870
61.893000,1865
61.893500,1852
61.894000,1811
61.894500,1781
61.895000,1748
61.895500,1735
61.896000,1749
61.896500,1756
61.897000,1759
61.897500,1788
61.898000,1738
61.898500,1637
61.899000,1581
61.899500,1567
61.900000,1578
61.900500,1593
61.901000,1655
61.901500,1764
61.902000,1764
61.902500,1730
61.903000,1693
61.903500,1693
61.904000,1724
61.904500,1824
61.905000,2010
61.905500,2147
61.906000,2145
61.906500,2076
61.907000,1991
61.907500,1893
61.908000,1829
61.908500,1792
61.909000,1769
61.909500,1758
61.910000,1771
61.910500,1792
61.911000,1796
61.911500,1772
61.912000,1787
61.912500,1847
61.913000,1861
61.913500,1837
61.914000,1828
61.914500,1823
61.915000,1807
61.915500,1787
61.916000,1792
61.916500,1767
61.917000,1727
61.917500,1704
61.918000,1700
61.918500,1704
61.919000,1697
61.919500,1734
61.920000,1775
61.920500,1795
61.921000,1802
61.921500,1811
61.922000,1791
61.922500,1724
61.923000,1680
61.923500,1659
61.924000,1675
61.924500,1723
61.925000,1779
61.925500,1835
61.926000,1864
61.926500,1889
61.927000,1904
61.927500,1901
61.928000,1851
61.928500,1806
61.929000,1823
61.929500,1857
61.930000,1873
61.930500,1886
61.931000,1872
61.931500,1810
61.932000,1769
61.932500,1764
61.933000,1748
61.933500,1731
61.934000,1755
61.934500,1803
61.935000,1822
61.935500,1778
61.936000,1739
61.936500,1721
61.937000,1662
61.937500,1626
61.938000,1632
61.938500,1691
61.939000,1753
61.939500,1798
61.940000,1848
61.940500,1872
61.941000,1846
61.941500,1873
61.942000,1914
61.942500,1900
61.943000,1844
61.943500,1772
61.944000,1710
61.944500,1672
61.945000,1670
61.945500,1722
61.946000,1784
61.946500,1853
61.947000,1884
61.947500,1874
61.948000,1832
61.948500,1798
61.949000,1779
61.949500,1744
61.950000,1723
61.950500,1729
61.951000,1780
61.951500,1777
61.952000,1784
61.952500,1828
61.953000,1873
61.953500,1875
61.954000,1846
61.954500,1819
61.955000,1798
61.955500,1792
61.956000,1817
61.956500,1878
61.957000,1875
61.957500,1835
61.958000,1794
61.958500,1765
61.959000,1741
61.959500,1731
61.960000,1720
61.960500,1712
61.961000,1696
61.961500,1703
61.962000,1758
61.962500,1766
61.963000,1753
61.963500,1762
61.964000,1812
61.964500,1845
61.965000,1845
61.965500,1848
61.966000,1860
61.966500,1836
61.967000,1798
61.967500,1752
61.968000,1689
61.968500,1657
61.969000,1673
61.969500,1723
61.970000,1795
61.970500,1905
61.971000,1975
61.971500,1964
61.972000,1883
61.972500,1826
61.973000,1820
61.973500,1780
61.974000,1724
61.974500,1682
61.975000,1647
61.975500,1642
61.976000,1677
61.976500,1716
61.977000,1764
61.977500,1860
61.978000,1954
61.978500,1978
61.979000,1944
61.979500,1895
61.980000,1868
61.980500,1836
61.981000,1799
61.981500,1788
61.982000,1808
61.982500,1823
61.983000,1819
61.983500,1811
61.984000,1809
61.984500,1782
61.985000,1750
61.985500,1745
61.986000,1742
61.986500,1727
61.987000,1732
61.987500,1766
61.988000,1796
61.988500,1806
61.989000,1827
61.989500,1830
61.990000,1810
61.990500,1790
61.991000,1793
61.991500,1777
61.992000,1736
61.992500,1726
61.993000,1739
61.993500,1726
61.994000,1696
61.994500,1723
61.995000,1753
61.995500,1764
61.996000,1797
61.996500,1845
61.997000,1893
61.997500,1886
61.998000,1840
61.998500,1809
61.999000,1782
61.999500,1717
62.000000,1706
62.000500,1715
62.001000,1738
62.001500,1760
62.002000,1797
62.002500,1853
62.003000,1891
62.003500,1899
62.004000,1902
62.004500,1883
62.005000,1847
62.005500,1822
62.006000,1825
62.006500,1806
62.007000,1801
62.007500,1813
62.008000,1815
62.008500,1795
62.009000,1783
62.009500,1793
62.010000,1798
62.010500,1781
62.011000,1779
62.011500,1790
62.012000,1782
62.012500,1777
62.013000,1789
62.013500,1792
62.014000,1764
62.014500,1738
62.015000,1745
62.015500,1748
62.016000,1733
62.016500,1736
62.017000,1782
62.017500,1816
62.018000,1823
62.018500,1836
62.019000,1829
62.019500,1808
62.020000,1798
62.020500,1808
62.021000,1806
62.021500,1784
62.022000,1766
62.022500,1775
62.023000,1764
62.023500,1751
62.024000,1748
62.024500,1745
62.025000,1754
62.025500,1754
62.026000,1772
62.026500,1801
62.027000,1816
62.027500,1830
62.028000,1804
62.028500,1753
62.029000,1734
62.029500,1753
62.030000,1769
62.030500,1757
62.031000,1745
62.031500,1763
62.032000,1800
62.032500,1788
62.033000,1769
62.033500,1750
62.034000,1745
62.034500,1747
62.035000,1796
62.035500,1849
62.036000,1918
62.036500,1965
62.037000,1956
62.037500,1917
62.038000,1852
62.038500,1840
62.039000,1817
62.039500,1799
62.040000,1791
62.040500,1804
62.041000,1811
62.041500,1789
62.042000,1782
62.042500,1791
62.043000,1794
62.043500,1778
62.044000,1800
62.044500,1797
62.045000,1785
62.045500,1776
62.046000,1794
62.046500,1799
62.047000,1784
62.047500,1778
62.048000,1792
62.048500,1786
62.049000,1761
62.049500,1764
62.050000,1781
62.050500,1765
62.051000,1753
62.051500,1761
62.052000,1762
62.052500,1742
62.053000,1740
62.053500,1768
62.054000,1775
62.054500,1762
62.055000,1785
62.055500,1785
62.056000,1784
62.056500,1785
62.057000,1817
62.057500,1846
62.058000,1830
62.058500,1815
62.059000,1816
62.059500,1809
62.060000,1789
62.060500,1802
62.061000,1796
62.061500,1790
62.062000,1787
62.062500,1800
62.063000,1808
62.063500,1804
62.064000,1800
62.064500,1806
62.065000,1815
62.065500,1788
62.066000,1812
62.066500,1807
62.067000,1791
62.067500,1779
62.068000,1788
62.068500,1783
62.069000,1749
62.069500,1729
62.070000,1739
62.070500,1744
62.071000,1730
62.071500,1764
62.072000,1796
62.072500,1818
62.073000,1833
62.073500,1852
62.074000,1850
62.074500,1819
62.075000,1800
62.075500,1805
62.076000,1815
62.076500,1809
62.077000,1835
62.077500,1835
62.078000,1797
62.078500,1772
62.079000,1766
62.079500,1764
62.080000,1759
62.080500,1768
62.081000,1803
62.081500,1817
62.082000,1810
62.082500,1843
62.083000,1835
62.083500,1813
62.084000,1796
62.084500,1798
62.085000,1802
62.085500,1789
62.086000,1783
62.086500,1797
62.087000,1799
62.087500,1778
62.088000,1795
62.088500,1789
62.089000,1784
62.089500,1778
62.090000,1800
62.090500,1800
62.091000,1791
62.091500,1784
62.092000,1801
62.092500,1808
62.093000,1787
62.093500,1804
62.094000,1801
62.094500,1793
62.095000,1782
62.095500,1791
62.096000,1794
62.096500,1778
62.097000,1773
62.097500,1802
62.098000,1811
62.098500,1797
62.099000,1797
62.099500,1802
62.100000,1789
62.100500,1780
62.101000,1788
62.101500,1795
62.102000,1779
62.102500,1774
62.103000,1785
62.103500,1786
62.104000,1772
62.104500,1795
62.105000,1788
62.105500,1790
62.106000,1794
62.106500,1801
62.107000,1800
62.107500,1782
62.108000,1776
62.108500,1790
62.109000,1796
62.109500,1779
62.110000,1806
62.110500,1798
62.111000,1792
62.111500,1784
62.112000,1795
62.112500,1802
62.113000,1789
62.113500,1778
62.114000,1791
62.114500,1800
62.115000,1797
62.115500,1821
62.116000,1814
62.116500,1804
62.117000,1794
62.117500,1807
62.118000,1808
62.118500,1797
62.119000,1788
62.119500,1793
62.120000,1793
62.120500,1760
62.121000,1739
62.121500,1741
62.122000,1745
62.122500,1751
62.123000,1768
62.123500,1782
62.124000,1778
62.124500,1777
62.125000,1802
62.125500,1818
62.126000,1815
62.126500,1797
62.127000,1788
62.127500,1766
62.128000,1760
62.128500,1780
62.129000,1785
62.129500,1791
62.130000,1823
62.130500,1868
62.131000,1889
62.131500,1867
62.132000,1841
62.132500,1836
62.133000,1805
62.133500,1767
62.134000,1751
62.134500,1751
62.135000,1751
62.135500,1745
62.136000,1764
62.136500,1783
62.137000,1796
62.137500,1820
62.138000,1828
62.138500,1799
62.139000,1775
62.139500,1775
62.140000,1768
62.140500,1741
62.141000,1750
62.141500,1790
62.142000,1828
62.142500,1860
62.143000,1875
62.143500,1882
62.144000,1849
62.144500,1821
62.145000,1810
62.145500,1807
62.146000,1787
62.146500,1777
62.147000,1790
62.147500,1795
62.148000,1781
62.148500,1772
62.149000,1788
62.149500,1773
62.150000,1776
62.150500,1787
62.151000,1802
62.151500,1790
62.152000,1788
62.152500,1802
62.153000,1810
62.153500,1793
62.154000,1784
62.154500,1799
62.155000,1787
62.155500,1786
62.156000,1796
62.156500,1797
62.157000,1782
62.157500,1783
62.158000,1790
62.158500,1791
62.159000,1778
62.159500,1773
62.160000,1797
62.160500,1776
62.161000,1780
62.161500,1790
62.162000,1789
62.162500,1780
62.163000,1772
62.163500,1790
62.164000,1794
62.164500,1781
62.165000,1779
62.165500,1794
62.166000,1799
62.166500,1779
62.167000,1786
62.167500,1797
62.168000,1787
62.168500,1778
62.169000,1789
62.169500,1793
62.170000,1786
62.170500,1781
62.171000,1803
62.171500,1808
62.172000,1788
62.172500,1798
62.173000,1806
62.173500,1797
62.174000,1793
62.174500,1805
62.175000,1812
62.175500,1794
62.176000,1795
62.176500,1804
62.177000,1805
62.177500,1790
62.178000,1804
62.178500,1796
62.179000,1784
62.179500,1777
62.180000,1792
62.180500,1797
62.181000,1784
62.181500,1775
62.182000,1789
62.182500,1794
62.183000,1784
62.183500,1779
62.184000,1792
62.184500,1785
62.185000,1777
62.185500,1789
62.186000,1793
62.186500,1782
62.187000,1779
62.187500,1794
62.188000,1800
62.188500,1783
62.189000,1777
62.189500,1794
62.190000,1794
62.190500,1784
62.191000,1796
62.191500,1804
62.192000,1794
62.192500,1788
62.193000,1803
62.193500,1808
62.194000,1792
62.194500,1787
62.195000,1807
62.195500,1796
62.196000,1793
62.196500,1796
62.197000,1804
62.197500,1798
62.198000,1784
62.198500,1796
62.199000,1800
62.199500,1788
62.200000,1782
62.200500,1794
62.201000,1799
62.201500,1773
62.202000,1779
62.202500,1789
62.203000,1781
62.203500,1780
62.204000,1792
62.204500,1798
62.205000,1782
62.205500,1781
62.206000,1798
62.206500,1801
62.207000,1782
62.207500,1807
62.208000,1797
62.208500,1786
62.209000,1779
62.209500,1794
62.210000,1801
62.210500,1789
62.211000,1787
62.211500,1797
62.212000,1802
62.212500,1790
62.213000,1809
62.213500,1801
62.214000,1793
62.214500,1788
62.215000,1799
62.215500,1807
62.216000,1795
62.216500,1793
62.217000,1808
62.217500,1813
62.218000,1789
62.218500,1781
62.219000,1795
62.219500,1788
62.220000,1788
62.220500,1797
62.221000,1802
62.221500,1785
62.222000,1783
62.222500,1794
62.223000,1798
62.223500,1783
62.224000,1776
62.224500,1790
62.225000,1786
62.225500,1783
62.226000,1795
62.226500,1796
62.227000,1785
62.227500,1783
62.228000,1797
62.228500,1802
62.229000,1783
62.229500,1783
62.230000,1805
62.230500,1792
62.231000,1785
62.231500,1795
62.232000,1800
62.232500,1790
62.233000,1785
62.233500,1802
62.234000,1810
62.234500,1795
62.235000,1793
62.235500,1806
62.236000,1800
62.236500,1790
62.237000,1802
62.237500,1810
62.238000,1792
62.238500,1783
62.239000,1793
62.239500,1796
62.240000,1784
62.240500,1778
62.241000,1791
62.241500,1776
62.242000,1770
62.242500,1775
62.243000,1776
62.243500,1765
62.244000,1762
62.244500,1776
62.245000,1781
62.245500,1766
62.246000,1764
62.246500,1787
62.247000,1792
62.247500,1792
62.248000,1801
62.248500,1798
62.249000,1782
62.249500,1774
62.250000,1792
62.250500,1809
62.251000,1804
62.251500,1801
62.252000,1822
62.252500,1815
62.253000,1807
62.253500,1814
62.254000,1819
62.254500,1812
62.255000,1813
62.255500,1824
62.256000,1824
62.256500,1805
62.257000,1797
62.257500,1813
62.258000,1797
62.258500,1788
62.259000,1791
62.259500,1798
62.260000,1782
62.260500,1777
62.261000,1794
62.261500,1796
62.262000,1782
62.262500,1777
62.263000,1793
62.263500,1783
62.264000,1780
62.264500,1788
62.265000,1796
62.265500,1782
62.266000,1774
62.266500,1782
62.267000,1786
62.267500,1770
62.268000,1767
62.268500,1783
62.269000,1770
62.269500,1771
62.270000,1782
62.270500,1798
62.271000,1799
62.271500,1800
62.272000,1811
62.272500,1810
62.273000,1790
62.273500,1782
62.274000,1799
62.274500,1790
62.275000,1790
62.275500,1798
62.276000,1808
62.276500,1791
62.277000,1789
62.277500,1806
62.278000,1811
62.278500,1794
62.279000,1792
62.279500,1804
62.280000,1798
62.280500,1789
62.281000,1799
62.281500,1802
62.282000,1786
62.282500,1782
62.283000,1792
62.283500,1797
62.284000,1778
62.284500,1777
62.285000,1794
62.285500,1789
62.286000,1783
62.286500,1792
62.287000,1795
62.287500,1785
62.288000,1780
62.288500,1796
62.289000,1798
62.289500,1782
62.290000,1779
62.290500,1798
62.291000,1794
62.291500,1786
62.292000,1799
62.292500,1805
62.293000,1794
62.293500,1791
62.294000,1805
62.294500,1809
62.295000,1793
62.295500,1790
62.296000,1805
62.296500,1796
62.297000,1790
62.297500,1807
62.298000,1804
62.298500,1788
62.299000,1781
62.299500,1794
62.300000,1801
62.300500,1782
62.301000,1776
62.301500,1790
62.302000,1784
62.302500,1781
62.303000,1790
62.303500,1794
62.304000,1783
62.304500,1776
62.305000,1797
62.305500,1798
62.306000,1787
62.306500,1781
62.307000,1800
62.307500,1788
62.308000,1782
62.308500,1790
62.309000,1793
62.309500,1785
62.310000,1781
62.310500,1801
62.311000,1811
62.311500,1791
62.312000,1788
62.312500,1803
62.313000,1789
62.313500,1794
62.314000,1805
62.314500,1807
62.315000,1799
62.315500,1796
62.316000,1808
62.316500,1808
62.317000,1791
62.317500,1787
62.318000,1799
62.318500,1775
62.319000,1776
62.319500,1788
62.320000,1791
62.320500,1782
62.321000,1779
62.321500,1788
62.322000,1796
62.322500,1780
62.323000,1776
62.323500,1794
62.324000,1790
62.324500,1782
62.325000,1801
62.325500,1801
62.326000,1791
62.326500,1783
62.327000,1798
62.327500,1803
62.328000,1788
62.328500,1782
62.329000,1795
62.329500,1796
62.330000,1781
62.330500,1792
62.331000,1800
62.331500,1784
62.332000,1773
62.332500,1784
62.333000,1789
62.333500,1772
62.334000,1770
62.334500,1786
62.335000,1778
62.335500,1783
62.336000,1807
62.336500,1815
62.337000,1813
62.337500,1814
62.338000,1820
62.338500,1821
62.339000,1798
62.339500,1785
62.340000,1796
62.340500,1772
62.341000,1778
62.341500,1788
62.342000,1788
62.342500,1777
62.343000,1770
62.343500,1788
62.344000,1799
62.344500,1790
62.345000,1788
62.345500,1800
62.346000,1797
62.346500,1784
62.347000,1795
62.347500,1801
62.348000,1799
62.348500,1799
62.349000,1818
62.349500,1816
62.350000,1799
62.350500,1794
62.351000,1812
62.351500,1795
62.352000,1792
62.352500,1802
62.353000,1807
62.353500,1796
62.354000,1789
62.354500,1805
62.355000,1815
62.355500,1796
62.356000,1792
62.356500,1806
62.357000,1797
62.357500,1790
62.358000,1797
62.358500,1799
62.359000,1785
62.359500,1779
62.360000,1797
62.360500,1799
62.361000,1783
62.361500,1775
62.362000,1788
62.362500,1783
62.363000,1776
62.363500,1787
62.364000,1794
62.364500,1783
62.365000,1782
62.365500,1799
62.366000,1801
62.366500,1787
62.367000,1781
62.367500,1796
62.368000,1787
62.368500,1781
62.369000,1789
62.369500,1796
62.370000,1785
62.370500,1782
62.371000,1802
62.371500,1804
62.372000,1790
62.372500,1786
62.373000,1806
62.373500,1797
62.374000,1791
62.374500,1804
62.375000,1810
62.375500,1796
62.376000,1790
62.376500,1801
62.377000,1807
62.377500,1792
62.378000,1788
62.378500,1799
62.379000,1790
62.379500,1780
62.380000,1793
62.380500,1800
62.381000,1786
62.381500,1779
62.382000,1790
62.382500,1795
62.383000,1781
62.383500,1778
62.384000,1798
62.384500,1787
62.385000,1780
62.385500,1792
62.386000,1799
62.386500,1787
62.387000,1784
62.387500,1798
62.388000,1804
62.388500,1781
62.389000,1800
62.389500,1797
62.390000,1792
62.390500,1788
62.391000,1802
62.391500,1806
62.392000,1791
62.392500,1790
62.393000,1802
62.393500,1807
62.394000,1794
62.394500,1808
62.395000,1814
62.395500,1800
62.396000,1796
62.396500,1802
62.397000,1807
62.397500,1796
62.398000,1787
62.398500,1800
62.399000,1801
62.399500,1782
62.400000,1796
62.400500,1793
62.401000,1783
62.401500,1775
62.402000,1788
62.402500,1792
62.403000,1780
62.403500,1775
62.404000,1788
62.404500,1797
62.405000,1779
62.405500,1784
62.406000,1800
62.406500,1788
62.407000,1780
62.407500,1796
62.408000,1799
62.408500,1784
62.409000,1778
62.409500,1796
62.410000,1804
62.410500,1788
62.411000,1801
62.411500,1804
62.412000,1794
62.412500,1791
62.413000,1804
62.413500,1809
62.414000,1795
62.414500,1790
62.415000,1808
62.415500,1813
62.416000,1793
62.416500,1793
62.417000,1806
62.417500,1800
62.418000,1789
62.418500,1796
62.419000,1799
62.419500,1782
62.420000,1778
62.420500,1794
62.421000,1796
62.421500,1776
62.422000,1790
62.422500,1788
62.423000,1781
62.423500,1776
62.424000,1786
62.424500,1790
62.425000,1780
62.425500,1778
62.426000,1791
62.426500,1795
62.427000,1776
62.427500,1798
62.428000,1790
62.428500,1778
62.429000,1773
62.429500,1787
62.430000,1801
62.430500,1783
62.431000,1784
62.431500,1801
62.432000,1804
62.432500,1788
62.433000,1788
62.433500,1803
62.434000,1795
62.434500,1787
62.435000,1810
62.435500,1809
62.436000,1793
62.436500,1788
62.437000,1799
62.437500,1811
62.438000,1784
62.438500,1784
62.439000,1796
62.439500,1783
62.440000,1782
62.440500,1792
62.441000,1798
62.441500,1779
62.442000,1776
62.442500,1790
62.443000,1796
62.443500,1775
62.444000,1783
62.444500,1791
62.445000,1780
62.445500,1780
62.446000,1796
62.446500,1801
62.447000,1785
62.447500,1779
62.448000,1797
62.448500,1783
62.449000,1776
62.449500,1791
62.450000,1798
62.450500,1787
62.451000,1787
62.451500,1799
62.452000,1804
62.452500,1790
62.453000,1790
62.453500,1807
62.454000,1794
62.454500,1792
62.455000,1806
62.455500,1809
62.456000,1798
62.456500,1788
62.457000,1803
62.457500,1810
62.458000,1788
62.458500,1781
62.459000,1792
62.459500,1786
62.460000,1777
62.460500,1792
62.461000,1794
62.461500,1781
62.462000,1774
62.462500,1787
62.463000,1793
62.463500,1780
62.464000,1774
62.464500,1790
62.465000,1789
62.465500,1781
62.466000,1796
62.466500,1796
62.467000,1785
62.467500,1780
62.468000,1793
62.468500,1794
62.469000,1780
62.469500,1772
62.470000,1791
62.470500,1794
62.471000,1786
62.471500,1799
62.472000,1803
62.472500,1796
62.473000,1789
62.473500,1803
62.474000,1808
62.474500,1797
62.475000,1793
62.475500,1811
62.476000,1804
62.476500,1794
62.477000,1801
62.477500,1808
62.478000,1792
62.478500,1783
62.479000,1796
62.479500,1795
62.480000,1788
62.480500,1777
62.481000,1792
62.481500,1788
62.482000,1776
62.482500,1787
62.483000,1793
62.483500,1781
62.484000,1780
62.484500,1791
62.485000,1804
62.485500,1785
62.486000,1781
62.486500,1795
62.487000,1788
62.487500,1780
62.488000,1792
62.488500,1798
62.489000,1783
62.489500,1778
62.490000,1795
62.490500,1804
62.491000,1791
62.491500,1782
62.492000,1803
62.492500,1795
62.493000,1789
62.493500,1801
62.494000,1804
62.494500,1796
62.495000,1793
62.495500,1806
62.496000,1809
62.496500,1790
62.497000,1810
62.497500,1804
62.498000,1790
62.498500,1783
62.499000,1791
62.499500,1795
62.500000,1784
62.500500,1781
62.501000,1793
62.501500,1797
62.502000,1776
62.502500,1797
62.503000,1797
62.503500,1788
62.504000,1781
62.504500,1792
62.505000,1798
62.505500,1782
62.506000,1778
62.506500,1788
62.507000,1794
62.507500,1780
62.508000,1776
62.508500,1791
62.509000,1780
62.509500,1778
62.510000,1792
62.510500,1799
62.511000,1790
62.511500,1783
62.512000,1798
62.512500,1804
62.513000,1790
62.513500,1786
62.514000,1806
62.514500,1798
62.515000,1798
62.515500,1808
62.516000,1812
62.516500,1795
62.517000,1791
62.517500,1808
62.518000,1805
62.518500,1786
62.519000,1778
62.519500,1798
62.520000,1792
62.520500,1780
62.521000,1787
62.521500,1791
62.522000,1779
62.522500,1776
62.523000,1792
62.523500,1796
62.524000,1777
62.524500,1774
62.525000,1792
62.525500,1784
62.526000,1782
62.526500,1794
62.527000,1797
62.527500,1786
62.528000,1780
62.528500,1790
62.529000,1795
62.529500,1779
62.530000,1780
62.530500,1795
62.531000,1792
62.531500,1787
62.532000,1798
62.532500,1806
62.533000,1796
62.533500,1789
62.534000,1803
62.534500,1807
62.535000,1793
62.535500,1794
62.536000,1808
62.536500,1797
62.537000,1791
62.537500,1804
62.538000,1799
62.538500,1787
62.539000,1780
62.539500,1795
62.540000,1802
62.540500,1781
62.541000,1773
62.541500,1788
62.542000,1782
62.542500,1775
62.543000,1790
62.543500,1796
62.544000,1781
62.544500,1778
62.545000,1792
62.545500,1797
62.546000,1784
62.546500,1778
62.547000,1795
62.547500,1789
62.548000,1780
62.548500,1792
62.549000,1795
62.549500,1781
62.550000,1786
62.550500,1798
62.551000,1804
62.551500,1789
62.552000,1785
62.552500,1805
62.553000,1795
62.553500,1791
62.554000,1802
62.554500,1807
62.555000,1796
62.555500,1792
62.556000,1806
62.556500,1809
62.557000,1791
62.557500,1787
62.558000,1801
62.558500,1789
62.559000,1779
62.559500,1788
62.560000,1798
62.560500,1783
62.561000,1779
62.561500,1789
62.562000,1794
62.562500,1778
62.563000,1794
62.563500,1792
62.564000,1782
62.564500,1776
62.565000,1795
62.565500,1796
62.566000,1785
62.566500,1780
62.567000,1796
62.567500,1801
62.568000,1782
62.568500,1788
62.569000,1792
62.569500,1783
62.570000,1780
62.570500,1796
62.571000,1805
62.571500,1791
62.572000,1784
62.572500,1803
62.573000,1807
62.573500,1791
62.574000,1792
62.574500,1806
62.575000,1797
62.575500,1797
62.576000,1806
62.576500,1809
62.577000,1792
62.577500,1791
62.578000,1799
62.578500,1800
62.579000,1780
62.579500,1784
62.580000,1792
62.580500,1783
62.581000,1777
62.581500,1787
62.582000,1791
62.582500,1780
62.583000,1772
62.583500,1790
62.584000,1776
62.584500,1777
62.585000,1791
62.585500,1796
62.586000,1783
62.586500,1780
62.587000,1792
62.587500,1800
62.588000,1786
62.588500,1778
62.589000,1791
62.589500,1783
62.590000,1785
62.590500,1796
62.591000,1804
62.591500,1793
62.592000,1785
62.592500,1803
62.593000,1808
62.593500,1792
62.594000,1787
62.594500,1805
62.595000,1803
62.595500,1793
62.596000,1803
62.596500,1807
62.597000,1792
62.597500,1790
62.598000,1799
62.598500,1799
62.599000,1782
62.599500,1782
62.600000,1796
62.600500,1788
62.601000,1781
62.601500,1785
62.602000,1790
62.602500,1777
62.603000,1774
62.603500,1790
62.604000,1796
62.604500,1780
62.605000,1801
62.605500,1794
62.606000,1787
62.606500,1782
62.607000,1793
62.607500,1796
62.608000,1783
62.608500,1778
62.609000,1792
62.609500,1800
62.610000,1787
62.610500,1788
62.611000,1806
62.611500,1796
62.612000,1793
62.612500,1804
62.613000,1809
62.613500,1794
62.614000,1790
62.614500,1807
62.615000,1814
62.615500,1794
62.616000,1795
62.616500,1805
62.617000,1793
62.617500,1788
62.618000,1794
62.618500,1800
62.619000,1781
62.619500,1775
62.620000,1794
62.620500,1797
62.621000,1779
62.621500,1779
62.622000,1791
62.622500,1784
62.623000,1781
62.623500,1790
62.624000,1796
62.624500,1779
62.625000,1777
62.625500,1793
62.626000,1783
62.626500,1778
62.627000,1796
62.627500,1798
62.628000,1786
62.628500,1778
62.629000,1790
62.629500,1794
62.630000,1782
62.630500,1780
62.631000,1800
62.631500,1797
62.632000,1788
62.632500,1800
62.633000,1808
62.633500,1794
62.634000,1791
62.634500,1804
62.635000,1814
62.635500,1797
62.636000,1790
62.636500,1801
62.637000,1797
62.637500,1790
62.638000,1796
62.638500,1798
62.639000,1783
62.639500,1777
62.640000,1797
62.640500,1798
62.641000,1782
62.641500,1788
62.642000,1793
62.642500,1782
62.643000,1776
62.643500,1788
62.644000,1796
62.644500,1783
62.645000,1780
62.645500,1797
62.646000,1801
62.646500,1782
62.647000,1800
62.647500,1800
62.648000,1789
62.648500,1779
62.649000,1790
62.649500,1792
62.650000,1789
62.650500,1784
62.651000,1799
62.651500,1805
62.652000,1788
62.652500,1812
62.653000,1807
62.653500,1796
62.654000,1790
62.654500,1803
62.655000,1813
62.655500,1795
62.656000,1796
62.656500,1804
62.657000,1806
62.657500,1792
62.658000,1810
62.658500,1797
62.659000,1784
62.659500,1780
62.660000,1796
62.660500,1796
62.661000,1783
62.661500,1775
62.662000,1792
62.662500,1796
62.663000,1778
62.663500,1788
62.664000,1794
62.664500,1783
62.665000,1782
62.665500,1792
62.666000,1797
62.666500,1783
62.667000,1779
62.667500,1797
62.668000,1801
62.668500,1781
62.669000,1783
62.669500,1794
62.670000,1789
62.670500,1783
62.671000,1799
62.671500,1806
62.672000,1789
62.672500,1786
62.673000,1803
62.673500,1807
62.674000,1789
62.674500,1804
62.675000,1812
62.675500,1799
62.676000,1794
62.676500,1801
62.677000,1805
62.677500,1792
62.678000,1784
62.678500,1799
62.679000,1779
62.679500,1780
62.680000,1793
62.680500,1792
62.681000,1782
62.681500,1777
62.682000,1790
62.682500,1792
62.683000,1780
62.683500,1774
62.684000,1792
62.684500,1774
62.685000,1785
62.685500,1795
62.686000,1797
62.686500,1785
62.687000,1780
62.687500,1796
62.688000,1801
62.688500,1782
62.689000,1776
62.689500,1794
62.690000,1786
62.690500,1784
62.691000,1796
62.691500,1801
62.692000,1790
62.692500,1788
62.693000,1803
62.693500,1808
62.694000,1792
62.694500,1790
62.695000,1809
62.695500,1797
62.696000,1794
62.696500,1799
62.697000,1804
62.697500,1794
62.698000,1784
62.698500,1796
62.699000,1797
62.699500,1780
62.700000,1781
62.700500,1790
62.701000,1779
62.701500,1775
62.702000,1785
62.702500,1792
62.703000,1779
62.703500,1780
62.704000,1789
62.704500,1795
62.705000,1783
62.705500,1779
62.706000,1798
62.706500,1776
62.707000,1779
62.707500,1787
62.708000,1796
62.708500,1782
62.709000,1776
62.709500,1789
62.710000,1801
62.710500,1785
62.711000,1782
62.711500,1801
62.712000,1798
62.712500,1788
62.713000,1803
62.713500,1803
62.714000,1796
62.714500,1790
62.715000,1810
62.715500,1812
62.716000,1795
62.716500,1788
62.717000,1801
62.717500,1792
62.718000,1789
62.718500,1797
62.719000,1793
62.719500,1781
62.720000,1778
62.720500,1793
62.721000,1798
62.721500,1783
62.722000,1777
62.722500,1792
62.723000,1783
62.723500,1778
62.724000,1789
62.724500,1797
62.725000,1789
62.725500,1783
62.726000,1795
62.726500,1799
62.727000,1783
62.727500,1777
62.728000,1796
62.728500,1786
62.729000,1781
62.729500,1786
62.730000,1799
62.730500,1790
62.731000,1787
62.731500,1799
62.732000,1807
62.732500,1794
62.733000,1786
62.733500,1803
62.734000,1786
62.734500,1790
62.735000,1804
62.735500,1805
62.736000,1797
62.736500,1788
62.737000,1801
62.737500,1812
62.738000,1789
62.738500,1783
62.739000,1795
62.739500,1781
62.740000,1789
62.740500,1788
62.741000,1796
62.741500,1782
62.742000,1779
62.742500,1794
62.743000,1798
62.743500,1780
62.744000,1775
62.744500,1792
62.745000,1777
62.745500,1785
62.746000,1798
62.746500,1797
62.747000,1786
62.747500,1780
62.748000,1794
62.748500,1795
62.749000,1780
62.749500,1775
62.750000,1797
62.750500,1787
62.751000,1785
62.751500,1798
62.752000,1804
62.752500,1794
62.753000,1789
62.753500,1804
62.754000,1807
62.754500,1792
62.755000,1792
62.755500,1808
62.756000,1792
62.756500,1791
62.757000,1802
62.757500,1807
62.758000,1790
62.758500,1783
62.759000,1795
62.759500,1797
62.760000,1784
62.760500,1776
62.761000,1794
62.761500,1780
62.762000,1775
62.762500,1793
62.763000,1794
62.763500,1782
62.764000,1780
62.764500,1789
62.765000,1800
62.765500,1781
62.766000,1778
62.766500,1794
62.767000,1799
62.767500,1782
62.768000,1789
62.768500,1795
62.769000,1783
62.769500,1780
62.770000,1799
62.770500,1804
62.771000,1788
62.771500,1785
62.772000,1802
62.772500,1810
62.773000,1789
62.773500,1798
62.774000,1806
62.774500,1795
62.775000,1796
62.775500,1807
62.776000,1813
62.776500,1793
62.777000,1788
62.777500,1808
62.778000,1804
62.778500,1782
62.779000,1781
62.779500,1794
62.780000,1785
62.780500,1776
62.781000,1788
62.781500,1792
62.782000,1780
62.782500,1775
62.783000,1790
62.783500,1792
62.784000,1779
62.784500,1780
62.785000,1791
62.785500,1786
62.786000,1782
62.786500,1790
62.787000,1798
62.787500,1786
62.788000,1781
62.788500,1793
62.789000,1797
62.789500,1779
62.790000,1785
62.790500,1801
62.791000,1793
62.791500,1784
62.792000,1799
62.792500,1804
62.793000,1792
62.793500,1787
62.794000,1803
62.794500,1807
62.795000,1793
62.795500,1810
62.796000,1809
62.796500,1792
62.797000,1786
62.797500,1803
62.798000,1804
62.798500,1787
62.799000,1778
62.799500,1793
62.800000,1802
62.800500,1784
62.801000,1801
62.801500,1794
62.802000,1785
62.802500,1777
62.803000,1790
62.803500,1794
62.804000,1782
62.804500,1776
62.805000,1799
62.805500,1800
62.806000,1787
62.806500,1804
62.807000,1796
62.807500,1787
62.808000,1781
62.808500,1790
62.809000,1796
62.809500,1782
62.810000,1777
62.810500,1798
62.811000,1805
62.811500,1789
62.812000,1813
62.812500,1804
62.813000,1799
62.813500,1789
62.814000,1802
62.814500,1807
62.815000,1799
62.815500,1793
62.816000,1807
62.816500,1809
62.817000,1792
62.817500,1812
62.818000,1803
62.818500,1792
62.819000,1783
62.819500,1790
62.820000,1796
62.820500,1786
62.821000,1780
62.821500,1791
62.822000,1792
62.822500,1773
62.823000,1773
62.823500,1787
62.824000,1786
62.824500,1777
62.825000,1793
62.825500,1799
62.826000,1790
62.826500,1779
62.827000,1794
62.827500,1796
62.828000,1786
62.828500,1777
62.829000,1792
62.829500,1778
62.830000,1786
62.830500,1797
62.831000,1804
62.831500,1792
62.832000,1789
62.832500,1802
62.833000,1808
62.833500,1795
62.834000,1786
62.834500,1802
62.835000,1814
62.835500,1791
62.836000,1792
62.836500,1804
62.837000,1795
62.837500,1795
62.838000,1798
62.838500,1801
62.839000,1785
62.839500,1776
62.840000,1791
62.840500,1797
62.841000,1782
62.841500,1797
62.842000,1794
62.842500,1785
62.843000,1780
62.843500,1792
62.844000,1799
62.844500,1781
62.845000,1780
62.845500,1794
62.846000,1801
62.846500,1783
62.847000,1797
62.847500,1797
62.848000,1789
62.848500,1780
62.849000,1789
62.849500,1796
62.850000,1787
62.850500,1782
62.851000,1802
62.851500,1805
62.852000,1790
62.852500,1786
62.853000,1804
62.853500,1796
62.854000,1791
62.854500,1804
62.855000,1817
62.855500,1798
62.856000,1794
62.856500,1804
62.857000,1808
62.857500,1796
62.858000,1784
62.858500,1796
62.859000,1787
62.859500,1782
62.860000,1798
62.860500,1796
62.861000,1783
62.861500,1774
62.862000,1787
62.862500,1793
62.863000,1775
62.863500,1774
62.864000,1788
62.864500,1786
62.865000,1779
62.865500,1796
62.866000,1801
62.866500,1784
62.867000,1780
62.867500,1794
62.868000,1798
62.868500,1783
62.869000,1775
62.869500,1788
62.870000,1786
62.870500,1782
62.871000,1798
62.871500,1801
62.872000,1790
62.872500,1787
62.873000,1804
62.873500,1809
62.874000,1794
62.874500,1789
62.875000,1805
62.875500,1801
62.876000,1791
62.876500,1800
62.877000,1805
62.877500,1796
62.878000,1785
62.878500,1793
62.879000,1798
62.879500,1784
62.880000,1778
62.880500,1795
62.881000,1790
62.881500,1778
62.882000,1791
62.882500,1793
62.883000,1784
62.883500,1778
62.884000,1790
62.884500,1795
62.885000,1785
62.885500,1778
62.886000,1796
62.886500,1788
62.887000,1782
62.887500,1793
62.888000,1798
62.888500,1785
62.889000,1778
62.889500,1795
62.890000,1804
62.890500,1788
62.891000,1810
62.891500,1802
62.892000,1795
62.892500,1788
62.893000,1800
62.893500,1804
62.894000,1793
62.894500,1789
62.895000,1806
62.895500,1812
62.896000,1793
62.896500,1802
62.897000,1804
62.897500,1796
62.898000,1785
62.898500,1796
62.899000,1798
62.899500,1783
62.900000,1781
62.900500,1794
62.901000,1801
62.901500,1778
62.902000,1777
62.902500,1793
62.903000,1782
62.903500,1776
62.904000,1792
62.904500,1795
62.905000,1784
62.905500,1780
62.906000,1795
62.906500,1779
62.907000,1778
62.907500,1794
62.908000,1797
62.908500,1782
62.909000,1777
62.909500,1789
62.910000,1798
62.910500,1787
62.911000,1784
62.911500,1803
62.912000,1789
62.912500,1789
62.913000,1798
62.913500,1806
62.914000,1797
62.914500,1789
62.915000,1808
62.915500,1812
62.916000,1796
62.916500,1788
62.917000,1804
62.917500,1797
62.918000,1787
62.918500,1792
62.919000,1796
62.919500,1784
62.920000,1778
62.920500,1794
62.921000,1800
62.921500,1780
62.922000,1774
62.922500,1789
62.923000,1780
62.923500,1778
62.924000,1789
62.924500,1792
62.925000,1782
62.925500,1781
62.926000,1793
62.926500,1800
62.927000,1784
62.927500,1780
62.928000,1793
62.928500,1787
62.929000,1781
62.929500,1792
62.930000,1800
62.930500,1785
62.931000,1784
62.931500,1798
62.932000,1807
62.932500,1790
62.933000,1785
62.933500,1804
62.934000,1796
62.934500,1791
62.935000,1809
62.935500,1809
62.936000,1798
62.936500,1790
62.937000,1804
62.937500,1812
62.938000,1789
62.938500,1781
62.939000,1796
62.939500,1788
62.940000,1785
62.940500,1790
62.941000,1795
62.941500,1782
62.942000,1774
62.942500,1788
62.943000,1794
62.943500,1778
62.944000,1796
62.944500,1794
62.945000,1786
62.945500,1783
62.946000,1793
62.946500,1796
62.947000,1784
62.947500,1779
62.948000,1795
62.948500,1798
62.949000,1781
62.949500,1802
62.950000,1803
62.950500,1797
62.951000,1791
62.951500,1801
62.952000,1804
62.952500,1792
62.953000,1790
62.953500,1804
62.954000,1812
62.954500,1794
62.955000,1793
62.955500,1806
62.956000,1798
62.956500,1791
62.957000,1799
62.957500,1806
62.958000,1788
62.958500,1781
62.959000,1792
62.959500,1796
62.960000,1780
62.960500,1775
62.961000,1791
62.961500,1786
62.962000,1777
62.962500,1793
62.963000,1794
62.963500,1782
62.964000,1779
62.964500,1793
62.965000,1799
62.965500,1780
62.966000,1777
62.966500,1797
62.967000,1785
62.967500,1783
62.968000,1792
62.968500,1793
62.969000,1779
62.969500,1775
62.970000,1793
62.970500,1802
62.971000,1787
62.971500,1806
62.972000,1801
62.972500,1793
62.973000,1788
62.973500,1803
62.974000,1807
62.974500,1797
62.975000,1792
62.975500,1806
62.976000,1809
62.976500,1789
62.977000,1790
62.977500,1809
62.978000,1792
62.978500,1783
62.979000,1795
62.979500,1797
62.980000,1788
62.980500,1776
62.981000,1796
62.981500,1778
62.982000,1775
62.982500,1786
62.983000,1794
62.983500,1782
62.984000,1778
62.984500,1793
62.985000,1799
62.985500,1783
62.986000,1780
62.986500,1792
62.987000,1785
62.987500,1782
62.988000,1795
62.988500,1794
62.989000,1780
62.989500,1774
62.990000,1795
62.990500,1801
62.991000,1789
62.991500,1810
62.992000,1805
62.992500,1795
62.993000,1789
62.993500,1800
62.994000,1805
62.994500,1794
62.995000,1793
62.995500,1807
62.996000,1811
62.996500,1789
62.997000,1801
62.997500,1806
62.998000,1790
62.998500,1783
62.999000,1793
62.999500,1796
63.000000,1782
63.000500,1777
63.001000,1793
63.001500,1781
63.002000,1776
63.002500,1786
63.003000,1793
63.003500,1781
63.004000,1777
63.004500,1794
63.005000,1802
63.005500,1782
63.006000,1778
63.006500,1794
63.007000,1788
63.007500,1781
63.008000,1794
63.008500,1793
63.009000,1781
63.009500,1777
63.010000,1798
63.010500,1800
63.011000,1787
63.011500,1783
63.012000,1798
63.012500,1799
63.013000,1790
63.013500,1801
63.014000,1806
63.014500,1791
63.015000,1794
63.015500,1807
63.016000,1812
63.016500,1790
63.017000,1790
63.017500,1804
63.018000,1790
63.018500,1784
63.019000,1790
63.019500,1796
63.020000,1781
63.020500,1776
63.021000,1791
63.021500,1794
63.022000,1779
63.022500,1793
63.023000,1794
63.023500,1784
63.024000,1780
63.024500,1791
63.025000,1795
63.025500,1783
63.026000,1780
63.026500,1793
63.027000,1798
63.027500,1779
63.028000,1801
63.028500,1795
63.029000,1784
63.029500,1780
63.030000,1797
63.030500,1801
63.031000,1790
63.031500,1785
63.032000,1803
63.032500,1807
63.033000,1793
63.033500,1801
63.034000,1804
63.034500,1795
63.035000,1796
63.035500,1805
63.036000,1809
63.036500,1791
63.037000,1786
63.037500,1806
63.038000,1804
63.038500,1785
63.039000,1784
63.039500,1794
63.040000,1783
63.040500,1779
63.041000,1791
63.041500,1795
63.042000,1782
63.042500,1778
63.043000,1792
63.043500,1798
63.044000,1775
63.044500,1788
63.045000,1797
63.045500,1783
63.046000,1780
63.046500,1792
63.047000,1798
63.047500,1784
63.048000,1780
63.048500,1794
63.049000,1780
63.049500,1780
63.050000,1797
63.050500,1797
63.051000,1789
63.051500,1785
63.052000,1798
63.052500,1803
63.053000,1794
63.053500,1789
63.054000,1804
63.054500,1788
63.055000,1795
63.055500,1810
63.056000,1815
63.056500,1796
63.057000,1792
63.057500,1804
63.058000,1807
63.058500,1788
63.059000,1781
63.059500,1796
63.060000,1780
63.060500,1783
63.061000,1792
63.061500,1794
63.062000,1781
63.062500,1776
63.063000,1787
63.063500,1794
63.064000,1781
63.064500,1774
63.065000,1797
63.065500,1784
63.066000,1783
63.066500,1792
63.067000,1799
63.067500,1786
63.068000,1779
63.068500,1791
63.069000,1795
63.069500,1779
63.070000,1780
63.070500,1799
63.071000,1792
63.071500,1788
63.072000,1799
63.072500,1804
63.073000,1794
63.073500,1790
63.074000,1805
63.074500,1809
63.075000,1797
63.075500,1806
63.076000,1805
63.076500,1794
63.077000,1788
63.077500,1804
63.078000,1803
63.078500,1784
63.079000,1780
63.079500,1793
63.080000,1794
63.080500,1780
63.081000,1793
63.081500,1791
63.082000,1779
63.082500,1775
63.083000,1789
63.083500,1793
63.084000,1775
63.084500,1770
63.085000,1786
63.085500,1770
63.086000,1775
63.086500,1788
63.087000,1791
63.087500,1780
63.088000,1774
63.088500,1789
63.089000,1794
63.089500,1784
63.090000,1788
63.090500,1807
63.091000,1808
63.091500,1798
63.092000,1806
63.092500,1811
63.093000,1801
63.093500,1793
63.094000,1808
63.094500,1812
63.095000,1794
63.095500,1791
63.096000,1808
63.096500,1796
63.097000,1790
63.097500,1803
63.098000,1804
63.098500,1787
63.099000,1779
63.099500,1790
63.100000,1804
63.100500,1780
63.101000,1804
63.101500,1793
63.102000,1782
63.102500,1778
63.103000,1791
63.103500,1795
63.104000,1781
63.104500,1774
63.105000,1796
63.105500,1797
63.106000,1780
63.106500,1784
63.107000,1797
63.107500,1785
63.108000,1781
63.108500,1789
63.109000,1793
63.109500,1779
63.110000,1780
63.110500,1795
63.111000,1806
63.111500,1786
63.112000,1790
63.112500,1806
63.113000,1797
63.113500,1791
63.114000,1802
63.114500,1808
63.115000,1792
63.115500,1793
63.116000,1808
63.116500,1809
63.117000,1790
63.117500,1804
63.118000,1801
63.118500,1790
63.119000,1781
63.119500,1791
63.120000,1800
63.120500,1784
63.121000,1780
63.121500,1793
63.122000,1781
63.122500,1777
63.123000,1793
63.123500,1797
63.124000,1783
63.124500,1776
63.125000,1796
63.125500,1798
63.126000,1785
63.126500,1777
63.127000,1796
63.127500,1783
63.128000,1783
63.128500,1794
63.129000,1793
63.129500,1783
63.130000,1787
63.130500,1802
63.131000,1809
63.131500,1788
63.132000,1784
63.132500,1804
63.133000,1805
63.133500,1789
63.134000,1802
63.134500,1805
63.135000,1795
63.135500,1792
63.136000,1805
63.136500,1808
63.137000,1791
63.137500,1790
63.138000,1800
63.138500,1783
63.139000,1785
63.139500,1792
63.140000,1794
63.140500,1783
63.141000,1776
63.141500,1788
63.142000,1794
63.142500,1780
63.143000,1773
63.143500,1793
63.144000,1779
63.144500,1777
63.145000,1791
63.145500,1797
63.146000,1789
63.146500,1783
63.147000,1795
63.147500,1803
63.148000,1785
63.148500,1777
63.149000,1789
63.149500,1786
63.150000,1780
63.150500,1795
63.151000,1804
63.151500,1790
63.152000,1789
63.152500,1804
63.153000,1807
63.153500,1792
63.154000,1788
63.154500,1804
63.155000,1798
63.155500,1793
63.156000,1806
63.156500,1806
63.157000,1792
63.157500,1791
63.158000,1802
63.158500,1802
63.159000,1780
63.159500,1800
63.160000,1799
63.160500,1784
63.161000,1780
63.161500,1786
63.162000,1795
63.162500,1781
63.163000,1777
63.163500,1792
63.164000,1799
63.164500,1776
63.165000,1779
63.165500,1794
63.166000,1788
63.166500,1782
63.167000,1795
63.167500,1798
63.168000,1784
63.168500,1774
63.169000,1792
63.169500,1778
63.170000,1788
63.170500,1797
63.171000,1801
63.171500,1790
63.172000,1786
63.172500,1800
63.173000,1807
63.173500,1793
63.174000,1789
63.174500,1806
63.175000,1804
63.175500,1794
63.176000,1802
63.176500,1808
63.177000,1794
63.177500,1792
63.178000,1802
63.178500,1804
63.179000,1784
63.179500,1776
63.180000,1794
63.180500,1787
63.181000,1783
63.181500,1790
63.182000,1793
63.182500,1777
63.183000,1773
63.183500,1791
63.184000,1794
63.184500,1780
63.185000,1798
63.185500,1794
63.186000,1785
63.186500,1781
63.187000,1793
63.187500,1797
63.188000,1786
63.188500,1777
63.189000,1792
63.189500,1797
63.190000,1785
63.190500,1786
63.191000,1803
63.191500,1793
63.192000,1786
63.192500,1802
63.193000,1807
63.193500,1793
63.194000,1790
63.194500,1806
63.195000,1812
63.195500,1793
63.196000,1794
63.196500,1807
63.197000,1792
63.197500,1788
63.198000,1792
63.198500,1797
63.199000,1778
63.199500,1773
63.200000,1790
63.200500,1790
63.201000,1778
63.201500,1787
63.202000,1792
63.202500,1783
63.203000,1781
63.203500,1802
63.204000,1807
63.204500,1792
63.205000,1789
63.205500,1803
63.206000,1791
63.206500,1787
63.207000,1796
63.207500,1800
63.208000,1789
63.208500,1779
63.209000,1790
63.209500,1793
63.210000,1780
63.210500,1776
63.211000,1792
63.211500,1790
63.212000,1782
63.212500,1796
63.213000,1803
63.213500,1791
63.214000,1787
63.214500,1804
63.215000,1817
63.215500,1801
63.216000,1801
63.216500,1810
63.217000,1803
63.217500,1800
63.218000,1805
63.218500,1806
63.219000,1788
63.219500,1781
63.220000,1795
63.220500,1798
63.221000,1780
63.221500,1797
63.222000,1792
63.222500,1784
63.223000,1777
63.223500,1788
63.224000,1796
63.224500,1782
63.225000,1783
63.225500,1796
63.226000,1802
63.226500,1782
63.227000,1804
63.227500,1798
63.228000,1789
63.228500,1781
63.229000,1790
63.229500,1794
63.230000,1782
63.230500,1779
63.231000,1798
63.231500,1805
63.232000,1787
63.232500,1791
63.233000,1806
63.233500,1796
63.234000,1791
63.234500,1803
63.235000,1815
63.235500,1794
63.236000,1790
63.236500,1803
63.237000,1786
63.237500,1792
63.238000,1797
63.238500,1798
63.239000,1783
63.239500,1780
63.240000,1796
63.240500,1796
63.241000,1782
63.241500,1775
63.242000,1790
63.242500,1776
63.243000,1776
63.243500,1785
63.244000,1793
63.244500,1782
63.245000,1777
63.245500,1791
63.246000,1800
63.246500,1784
63.247000,1778
63.247500,1793
63.248000,1790
63.248500,1778
63.249000,1789
63.249500,1793
63.250000,1789
63.250500,1782
63.251000,1800
63.251500,1804
63.252000,1789
63.252500,1785
63.253000,1804
63.253500,1798
63.254000,1792
63.254500,1802
63.255000,1811
63.255500,1796
63.256000,1794
63.256500,1802
63.257000,1806
63.257500,1794
63.258000,1795
63.258500,1797
63.259000,1787
63.259500,1781
63.260000,1797
63.260500,1794
63.261000,1780
63.261500,1775
63.262000,1792
63.262500,1797
63.263000,1777
63.263500,1799
63.264000,1794
63.264500,1786
63.265000,1780
63.265500,1792
63.266000,1797
63.266500,1785
63.267000,1781
63.267500,1798
63.268000,1805
63.268500,1782
63.269000,1779
63.269500,1795
63.270000,1786
63.270500,1785
63.271000,1799
63.271500,1805
63.272000,1794
63.272500,1788
63.273000,1805
63.273500,1809
63.274000,1789
63.274500,1804
63.275000,1811
63.275500,1799
63.276000,1796
63.276500,1803
63.277000,1805
63.277500,1793
63.278000,1782
63.278500,1795
63.279000,1796
63.279500,1777
63.280000,1790
63.280500,1794
63.281000,1783
63.281500,1776
63.282000,1788
63.282500,1793
63.283000,1780
63.283500,1774
63.284000,1792
63.284500,1778
63.285000,1781
63.285500,1793
63.286000,1802
63.286500,1786
63.287000,1783
63.287500,1791
63.288000,1800
63.288500,1783
63.289000,1773
63.289500,1791
63.290000,1794
63.290500,1785
63.291000,1799
63.291500,1804
63.292000,1791
63.292500,1788
63.293000,1805
63.293500,1810
63.294000,1793
63.294500,1788
63.295000,1809
63.295500,1797
63.296000,1793
63.296500,1799
63.297000,1804
63.297500,1795
63.298000,1786
63.298500,1797
63.299000,1799
63.299500,1782
63.300000,1792
63.300500,1795
63.301000,1784
63.301500,1776
63.302000,1788
63.302500,1792
63.303000,1779
63.303500,1774
63.304000,1790
63.304500,1798
63.305000,1784
63.305500,1804
63.306000,1797
63.306500,1786
63.307000,1782
63.307500,1796
63.308000,1798
63.308500,1780
63.309000,1775
63.309500,1792
63.310000,1802
63.310500,1786
63.311000,1791
63.311500,1802
63.312000,1794
63.312500,1789
63.313000,1803
63.313500,1809
63.314000,1794
63.314500,1789
63.315000,1806
63.315500,1812
63.316000,1790
63.316500,1794
63.317000,1804
63.317500,1794
63.318000,1785
63.318500,1796
63.319000,1798
63.319500,1780
63.320000,1777
63.320500,1794
63.321000,1780
63.321500,1776
63.322000,1786
63.322500,1792
63.323000,1781
63.323500,1776
63.324000,1792
63.324500,1795
63.325000,1783
63.325500,1780
63.326000,1799
63.326500,1787
63.327000,1781
63.327500,1791
63.328000,1799
63.328500,1787
63.329000,1781
63.329500,1794
63.330000,1800
63.330500,1789
63.331000,1785
63.331500,1800
63.332000,1796
63.332500,1793
63.333000,1803
63.333500,1806
63.334000,1795
63.334500,1790
63.335000,1804
63.335500,1810
63.336000,1796
63.336500,1795
63.337000,1803
63.337500,1797
63.338000,1784
63.338500,1794
63.339000,1800
63.339500,1783
63.340000,1782
63.340500,1794
63.341000,1799
63.341500,1778
63.342000,1798
63.342500,1792
63.343000,1784
63.343500,1778
63.344000,1790
63.344500,1796
63.345000,1785
63.345500,1782
63.346000,1796
63.346500,1798
63.347000,1781
63.347500,1786
63.348000,1795
63.348500,1784
63.349000,1779
63.349500,1790
63.350000,1802
63.350500,1790
63.351000,1788
63.351500,1803
63.352000,1800
63.352500,1790
63.353000,1805
63.353500,1805
63.354000,1796
63.354500,1789
63.355000,1806
63.355500,1812
63.356000,1797
63.356500,1790
63.357000,1802
63.357500,1789
63.358000,1785
63.358500,1793
63.359000,1796
63.359500,1782
63.360000,1774
63.360500,1793
63.361000,1796
63.361500,1778
63.362000,1773
63.362500,1788
63.363000,1786
63.363500,1780
63.364000,1793
63.364500,1795
63.365000,1785
63.365500,1779
63.366000,1797
63.366500,1801
63.367000,1784
63.367500,1800
63.368000,1800
63.368500,1785
63.369000,1779
63.369500,1792
63.370000,1803
63.370500,1788
63.371000,1787
63.371500,1802
63.372000,1806
63.372500,1791
63.373000,1793
63.373500,1805
63.374000,1796
63.374500,1790
63.375000,1806
63.375500,1810
63.376000,1797
63.376500,1788
63.377000,1803
63.377500,1801
63.378000,1784
63.378500,1796
63.379000,1797
63.379500,1785
63.380000,1781
63.380500,1794
63.381000,1795
63.381500,1778
63.382000,1772
63.382500,1788
63.383000,1784
63.383500,1779
63.384000,1790
63.384500,1790
63.385000,1781
63.385500,1777
63.386000,1796
63.386500,1797
63.387000,1783
63.387500,1779
63.388000,1795
63.388500,1785
63.389000,1779
63.389500,1790
